Time,ECG
2021-10-14 14:59:54.166428,-233
2021-10-14 14:59:54.166447,-215
2021-10-14 14:59:54.166456,-213
2021-10-14 14:59:54.166465,-206
2021-10-14 14:59:54.166474,-186
2021-10-14 14:59:54.166483,-169
2021-10-14 14:59:54.166491,-171
2021-10-14 14:59:54.166500,-176
2021-10-14 14:59:54.166508,-161
2021-10-14 14:59:54.166517,-142
2021-10-14 14:59:54.166525,-147
2021-10-14 14:59:54.166533,-154
2021-10-14 14:59:54.166542,-154
2021-10-14 14:59:54.166550,-157
2021-10-14 14:59:54.166558,-161
2021-10-14 14:59:54.166566,-174
2021-10-14 14:59:54.166574,-188
2021-10-14 14:59:54.166583,-203
2021-10-14 14:59:54.166591,-203
2021-10-14 14:59:54.166600,-196
2021-10-14 14:59:54.166608,-201
2021-10-14 14:59:54.166616,-213
2021-10-14 14:59:54.166625,-206
2021-10-14 14:59:54.166633,-193
2021-10-14 14:59:54.166641,-193
2021-10-14 14:59:54.166650,-198
2021-10-14 14:59:54.166658,-193
2021-10-14 14:59:54.166667,-196
2021-10-14 14:59:54.166675,-203
2021-10-14 14:59:54.166683,-191
2021-10-14 14:59:54.184937,-152
2021-10-14 14:59:54.184958,-115
2021-10-14 14:59:54.184967,-107
2021-10-14 14:59:54.184976,-110
2021-10-14 14:59:54.184985,-107
2021-10-14 14:59:54.184993,-125
2021-10-14 14:59:54.185002,-152
2021-10-14 14:59:54.185011,-154
2021-10-14 14:59:54.185019,-137
2021-10-14 14:59:54.185028,-127
2021-10-14 14:59:54.185036,-125
2021-10-14 14:59:54.185045,-125
2021-10-14 14:59:54.185053,-127
2021-10-14 14:59:54.185062,-127
2021-10-14 14:59:54.185070,-107
2021-10-14 14:59:54.185078,4
2021-10-14 14:59:54.185087,287
2021-10-14 14:59:54.185096,606
2021-10-14 14:59:54.185105,529
2021-10-14 14:59:54.185113,-71
2021-10-14 14:59:54.185121,-402
2021-10-14 14:59:54.185130,-63
2021-10-14 14:59:54.185139,107
2021-10-14 14:59:54.185147,-80
2021-10-14 14:59:54.185156,-80
2021-10-14 14:59:54.185164,2
2021-10-14 14:59:54.185172,-39
2021-10-14 14:59:54.185181,-49
2021-10-14 14:59:54.185189,4
2021-10-14 14:59:54.185200,9
2021-10-14 14:59:54.397621,9
2021-10-14 14:59:54.397641,53
2021-10-14 14:59:54.397651,85
2021-10-14 14:59:54.397660,95
2021-10-14 14:59:54.397668,122
2021-10-14 14:59:54.397677,152
2021-10-14 14:59:54.397685,169
2021-10-14 14:59:54.397694,211
2021-10-14 14:59:54.397702,262
2021-10-14 14:59:54.397711,294
2021-10-14 14:59:54.397719,321
2021-10-14 14:59:54.397728,341
2021-10-14 14:59:54.397737,353
2021-10-14 14:59:54.397749,358
2021-10-14 14:59:54.397758,348
2021-10-14 14:59:54.397766,328
2021-10-14 14:59:54.397775,289
2021-10-14 14:59:54.397783,215
2021-10-14 14:59:54.397792,125
2021-10-14 14:59:54.397800,39
2021-10-14 14:59:54.397809,-41
2021-10-14 14:59:54.397818,-105
2021-10-14 14:59:54.397826,-139
2021-10-14 14:59:54.397834,-157
2021-10-14 14:59:54.397843,-166
2021-10-14 14:59:54.397851,-169
2021-10-14 14:59:54.397860,-169
2021-10-14 14:59:54.397868,-166
2021-10-14 14:59:54.397877,-159
2021-10-14 14:59:54.397887,-147
2021-10-14 14:59:54.667369,-137
2021-10-14 14:59:54.667389,-132
2021-10-14 14:59:54.667399,-130
2021-10-14 14:59:54.667407,-120
2021-10-14 14:59:54.667416,-110
2021-10-14 14:59:54.667425,-112
2021-10-14 14:59:54.667433,-110
2021-10-14 14:59:54.667442,-100
2021-10-14 14:59:54.667450,-90
2021-10-14 14:59:54.667459,-90
2021-10-14 14:59:54.667467,-95
2021-10-14 14:59:54.667475,-100
2021-10-14 14:59:54.667484,-98
2021-10-14 14:59:54.667492,-95
2021-10-14 14:59:54.667500,-100
2021-10-14 14:59:54.667509,-98
2021-10-14 14:59:54.667517,-90
2021-10-14 14:59:54.667529,-88
2021-10-14 14:59:54.667537,-88
2021-10-14 14:59:54.667546,-83
2021-10-14 14:59:54.667554,-78
2021-10-14 14:59:54.667563,-76
2021-10-14 14:59:54.667571,-80
2021-10-14 14:59:54.667579,-90
2021-10-14 14:59:54.667588,-90
2021-10-14 14:59:54.667596,-78
2021-10-14 14:59:54.667604,-49
2021-10-14 14:59:54.667613,-12
2021-10-14 14:59:54.667621,0
2021-10-14 14:59:54.667630,0
2021-10-14 14:59:54.848007,0
2021-10-14 14:59:54.848027,-24
2021-10-14 14:59:54.848037,-58
2021-10-14 14:59:54.848045,-71
2021-10-14 14:59:54.848054,-68
2021-10-14 14:59:54.848062,-63
2021-10-14 14:59:54.848071,-53
2021-10-14 14:59:54.848084,-39
2021-10-14 14:59:54.848093,-34
2021-10-14 14:59:54.848101,-49
2021-10-14 14:59:54.848110,-51
2021-10-14 14:59:54.848118,22
2021-10-14 14:59:54.848126,255
2021-10-14 14:59:54.848135,623
2021-10-14 14:59:54.848143,799
2021-10-14 14:59:54.848151,353
2021-10-14 14:59:54.848160,-301
2021-10-14 14:59:54.848168,-235
2021-10-14 14:59:54.848177,139
2021-10-14 14:59:54.848185,63
2021-10-14 14:59:54.848194,-56
2021-10-14 14:59:54.848202,41
2021-10-14 14:59:54.848210,61
2021-10-14 14:59:54.848219,22
2021-10-14 14:59:54.848227,44
2021-10-14 14:59:54.848236,71
2021-10-14 14:59:54.848244,80
2021-10-14 14:59:54.848252,98
2021-10-14 14:59:54.848261,112
2021-10-14 14:59:54.848270,132
2021-10-14 14:59:55.117596,169
2021-10-14 14:59:55.117615,203
2021-10-14 14:59:55.117625,225
2021-10-14 14:59:55.117634,247
2021-10-14 14:59:55.117642,279
2021-10-14 14:59:55.117651,323
2021-10-14 14:59:55.117659,365
2021-10-14 14:59:55.117668,395
2021-10-14 14:59:55.117676,412
2021-10-14 14:59:55.117685,412
2021-10-14 14:59:55.117693,402
2021-10-14 14:59:55.117702,392
2021-10-14 14:59:55.117710,365
2021-10-14 14:59:55.117719,301
2021-10-14 14:59:55.117727,206
2021-10-14 14:59:55.117735,98
2021-10-14 14:59:55.117744,9
2021-10-14 14:59:55.117753,-53
2021-10-14 14:59:55.117761,-103
2021-10-14 14:59:55.117769,-139
2021-10-14 14:59:55.117778,-161
2021-10-14 14:59:55.117786,-174
2021-10-14 14:59:55.117795,-171
2021-10-14 14:59:55.117803,-164
2021-10-14 14:59:55.117816,-161
2021-10-14 14:59:55.117825,-159
2021-10-14 14:59:55.117833,-159
2021-10-14 14:59:55.117841,-161
2021-10-14 14:59:55.117850,-149
2021-10-14 14:59:55.117858,-139
2021-10-14 14:59:55.342639,-134
2021-10-14 14:59:55.342667,-125
2021-10-14 14:59:55.342677,-112
2021-10-14 14:59:55.342685,-112
2021-10-14 14:59:55.342694,-107
2021-10-14 14:59:55.342702,-95
2021-10-14 14:59:55.342711,-85
2021-10-14 14:59:55.342719,-95
2021-10-14 14:59:55.342728,-115
2021-10-14 14:59:55.342736,-125
2021-10-14 14:59:55.342745,-115
2021-10-14 14:59:55.342753,-107
2021-10-14 14:59:55.342761,-100
2021-10-14 14:59:55.342770,-93
2021-10-14 14:59:55.342779,-110
2021-10-14 14:59:55.342787,-130
2021-10-14 14:59:55.342795,-112
2021-10-14 14:59:55.342804,-93
2021-10-14 14:59:55.342812,-93
2021-10-14 14:59:55.342821,-90
2021-10-14 14:59:55.342829,-85
2021-10-14 14:59:55.342837,-83
2021-10-14 14:59:55.342848,-73
2021-10-14 14:59:55.342856,-56
2021-10-14 14:59:55.342865,-51
2021-10-14 14:59:55.342873,-49
2021-10-14 14:59:55.342881,-49
2021-10-14 14:59:55.342890,-53
2021-10-14 14:59:55.342898,-53
2021-10-14 14:59:55.342906,-44
2021-10-14 14:59:55.611675,-39
2021-10-14 14:59:55.611696,-41
2021-10-14 14:59:55.611705,-51
2021-10-14 14:59:55.611714,-51
2021-10-14 14:59:55.611723,-29
2021-10-14 14:59:55.611732,14
2021-10-14 14:59:55.611740,41
2021-10-14 14:59:55.611749,31
2021-10-14 14:59:55.611757,14
2021-10-14 14:59:55.611766,4
2021-10-14 14:59:55.611774,-4
2021-10-14 14:59:55.611783,-14
2021-10-14 14:59:55.611820,-12
2021-10-14 14:59:55.611830,-4
2021-10-14 14:59:55.611839,-14
2021-10-14 14:59:55.611847,-19
2021-10-14 14:59:55.611856,-9
2021-10-14 14:59:55.611865,-12
2021-10-14 14:59:55.611873,0
2021-10-14 14:59:55.611882,88
2021-10-14 14:59:55.611890,338
2021-10-14 14:59:55.611899,709
2021-10-14 14:59:55.611907,829
2021-10-14 14:59:55.611916,304
2021-10-14 14:59:55.611928,-309
2021-10-14 14:59:55.611936,-164
2021-10-14 14:59:55.611945,164
2021-10-14 14:59:55.611954,49
2021-10-14 14:59:55.611962,-24
2021-10-14 14:59:55.611971,71
2021-10-14 14:59:55.792620,56
2021-10-14 14:59:55.792640,22
2021-10-14 14:59:55.792650,63
2021-10-14 14:59:55.792659,80
2021-10-14 14:59:55.792667,78
2021-10-14 14:59:55.792675,105
2021-10-14 14:59:55.792684,122
2021-10-14 14:59:55.792692,117
2021-10-14 14:59:55.792701,134
2021-10-14 14:59:55.792709,169
2021-10-14 14:59:55.792718,198
2021-10-14 14:59:55.792726,230
2021-10-14 14:59:55.792735,264
2021-10-14 14:59:55.792743,284
2021-10-14 14:59:55.792752,291
2021-10-14 14:59:55.792760,309
2021-10-14 14:59:55.792768,328
2021-10-14 14:59:55.792777,341
2021-10-14 14:59:55.792785,343
2021-10-14 14:59:55.792793,331
2021-10-14 14:59:55.792802,306
2021-10-14 14:59:55.792810,260
2021-10-14 14:59:55.792818,184
2021-10-14 14:59:55.792826,93
2021-10-14 14:59:55.792835,7
2021-10-14 14:59:55.792843,-71
2021-10-14 14:59:55.792851,-122
2021-10-14 14:59:55.792860,-157
2021-10-14 14:59:55.792868,-179
2021-10-14 14:59:55.792876,-188
2021-10-14 14:59:56.017990,-188
2021-10-14 14:59:56.018011,-191
2021-10-14 14:59:56.018020,-188
2021-10-14 14:59:56.018029,-186
2021-10-14 14:59:56.018038,-179
2021-10-14 14:59:56.018046,-164
2021-10-14 14:59:56.018055,-159
2021-10-14 14:59:56.018063,-157
2021-10-14 14:59:56.018072,-144
2021-10-14 14:59:56.018080,-132
2021-10-14 14:59:56.018089,-120
2021-10-14 14:59:56.018097,-115
2021-10-14 14:59:56.018106,-122
2021-10-14 14:59:56.018114,-120
2021-10-14 14:59:56.018123,-107
2021-10-14 14:59:56.018131,-103
2021-10-14 14:59:56.018139,-105
2021-10-14 14:59:56.018148,-100
2021-10-14 14:59:56.018156,-100
2021-10-14 14:59:56.018165,-100
2021-10-14 14:59:56.018173,-98
2021-10-14 14:59:56.018182,-98
2021-10-14 14:59:56.018190,-95
2021-10-14 14:59:56.018198,-90
2021-10-14 14:59:56.018207,-88
2021-10-14 14:59:56.018215,-83
2021-10-14 14:59:56.018224,-78
2021-10-14 14:59:56.018232,-76
2021-10-14 14:59:56.018240,-66
2021-10-14 14:59:56.018249,-58
2021-10-14 14:59:56.242616,-58
2021-10-14 14:59:56.242637,-53
2021-10-14 14:59:56.242647,-58
2021-10-14 14:59:56.242656,-61
2021-10-14 14:59:56.242664,-56
2021-10-14 14:59:56.242673,-61
2021-10-14 14:59:56.242681,-68
2021-10-14 14:59:56.242690,-63
2021-10-14 14:59:56.242698,-51
2021-10-14 14:59:56.242707,-44
2021-10-14 14:59:56.242719,-44
2021-10-14 14:59:56.242728,-51
2021-10-14 14:59:56.242736,-56
2021-10-14 14:59:56.242745,-51
2021-10-14 14:59:56.242753,-36
2021-10-14 14:59:56.242762,-31
2021-10-14 14:59:56.242770,-36
2021-10-14 14:59:56.242779,-39
2021-10-14 14:59:56.242787,-29
2021-10-14 14:59:56.242796,-29
2021-10-14 14:59:56.242804,-39
2021-10-14 14:59:56.242813,-39
2021-10-14 14:59:56.242821,-29
2021-10-14 14:59:56.242830,-26
2021-10-14 14:59:56.242838,-29
2021-10-14 14:59:56.242846,-29
2021-10-14 14:59:56.242854,-34
2021-10-14 14:59:56.242863,-34
2021-10-14 14:59:56.242871,-7
2021-10-14 14:59:56.242880,29
2021-10-14 14:59:56.512997,41
2021-10-14 14:59:56.513026,34
2021-10-14 14:59:56.513036,24
2021-10-14 14:59:56.513045,19
2021-10-14 14:59:56.513053,4
2021-10-14 14:59:56.513062,-19
2021-10-14 14:59:56.513070,-36
2021-10-14 14:59:56.513079,-36
2021-10-14 14:59:56.513088,-34
2021-10-14 14:59:56.513096,-44
2021-10-14 14:59:56.513105,-53
2021-10-14 14:59:56.513113,-53
2021-10-14 14:59:56.513122,-24
2021-10-14 14:59:56.513130,107
2021-10-14 14:59:56.513139,412
2021-10-14 14:59:56.513147,765
2021-10-14 14:59:56.513156,709
2021-10-14 14:59:56.513164,63
2021-10-14 14:59:56.513173,-353
2021-10-14 14:59:56.513181,-56
2021-10-14 14:59:56.513189,122
2021-10-14 14:59:56.513198,-56
2021-10-14 14:59:56.513206,-51
2021-10-14 14:59:56.513214,36
2021-10-14 14:59:56.513223,0
2021-10-14 14:59:56.513234,-4
2021-10-14 14:59:56.513243,41
2021-10-14 14:59:56.513251,51
2021-10-14 14:59:56.513259,51
2021-10-14 14:59:56.513268,76
2021-10-14 14:59:56.692977,95
2021-10-14 14:59:56.692998,112
2021-10-14 14:59:56.693007,137
2021-10-14 14:59:56.693016,157
2021-10-14 14:59:56.693025,176
2021-10-14 14:59:56.693033,208
2021-10-14 14:59:56.693042,242
2021-10-14 14:59:56.693050,277
2021-10-14 14:59:56.693059,304
2021-10-14 14:59:56.693068,318
2021-10-14 14:59:56.693076,333
2021-10-14 14:59:56.693084,350
2021-10-14 14:59:56.693093,350
2021-10-14 14:59:56.693102,336
2021-10-14 14:59:56.693110,311
2021-10-14 14:59:56.693118,269
2021-10-14 14:59:56.693127,196
2021-10-14 14:59:56.693136,115
2021-10-14 14:59:56.693144,41
2021-10-14 14:59:56.693153,-24
2021-10-14 14:59:56.693161,-76
2021-10-14 14:59:56.693169,-110
2021-10-14 14:59:56.693178,-142
2021-10-14 14:59:56.693186,-152
2021-10-14 14:59:56.693195,-149
2021-10-14 14:59:56.693203,-161
2021-10-14 14:59:56.693211,-176
2021-10-14 14:59:56.693219,-169
2021-10-14 14:59:56.693227,-152
2021-10-14 14:59:56.693235,-142
2021-10-14 14:59:57.053012,-132
2021-10-14 14:59:57.053034,-112
2021-10-14 14:59:57.053043,-103
2021-10-14 14:59:57.053052,-120
2021-10-14 14:59:57.053061,-122
2021-10-14 14:59:57.053069,-95
2021-10-14 14:59:57.053078,-90
2021-10-14 14:59:57.053087,-103
2021-10-14 14:59:57.053095,-98
2021-10-14 14:59:57.053104,-95
2021-10-14 14:59:57.053112,-112
2021-10-14 14:59:57.053121,-117
2021-10-14 14:59:57.053130,-105
2021-10-14 14:59:57.053138,-98
2021-10-14 14:59:57.053146,-105
2021-10-14 14:59:57.053155,-105
2021-10-14 14:59:57.053166,-95
2021-10-14 14:59:57.053175,-88
2021-10-14 14:59:57.053183,-93
2021-10-14 14:59:57.053192,-88
2021-10-14 14:59:57.053201,-83
2021-10-14 14:59:57.053209,-90
2021-10-14 14:59:57.053217,-88
2021-10-14 14:59:57.053226,-71
2021-10-14 14:59:57.053234,-63
2021-10-14 14:59:57.053243,-61
2021-10-14 14:59:57.053251,-61
2021-10-14 14:59:57.053259,-61
2021-10-14 14:59:57.053268,-56
2021-10-14 14:59:57.053276,-49
2021-10-14 14:59:57.232964,-41
2021-10-14 14:59:57.232984,-41
2021-10-14 14:59:57.232994,-53
2021-10-14 14:59:57.233003,-53
2021-10-14 14:59:57.233012,-46
2021-10-14 14:59:57.233021,-53
2021-10-14 14:59:57.233029,-49
2021-10-14 14:59:57.233037,-46
2021-10-14 14:59:57.233046,-58
2021-10-14 14:59:57.233054,-61
2021-10-14 14:59:57.233062,-46
2021-10-14 14:59:57.233071,-44
2021-10-14 14:59:57.233079,-58
2021-10-14 14:59:57.233088,-63
2021-10-14 14:59:57.233096,-63
2021-10-14 14:59:57.233104,-71
2021-10-14 14:59:57.233113,-68
2021-10-14 14:59:57.233121,-53
2021-10-14 14:59:57.233130,-44
2021-10-14 14:59:57.233138,-44
2021-10-14 14:59:57.233146,-53
2021-10-14 14:59:57.233155,-61
2021-10-14 14:59:57.233163,-53
2021-10-14 14:59:57.233171,-39
2021-10-14 14:59:57.233180,-41
2021-10-14 14:59:57.233188,-58
2021-10-14 14:59:57.233196,-63
2021-10-14 14:59:57.233205,-36
2021-10-14 14:59:57.233213,4
2021-10-14 14:59:57.233222,22
2021-10-14 14:59:57.457034,14
2021-10-14 14:59:57.457055,0
2021-10-14 14:59:57.457065,-22
2021-10-14 14:59:57.457074,-29
2021-10-14 14:59:57.457082,-34
2021-10-14 14:59:57.457090,-39
2021-10-14 14:59:57.457099,-24
2021-10-14 14:59:57.457107,-19
2021-10-14 14:59:57.457116,-44
2021-10-14 14:59:57.457124,-51
2021-10-14 14:59:57.457133,-31
2021-10-14 14:59:57.457141,24
2021-10-14 14:59:57.457149,196
2021-10-14 14:59:57.457162,544
2021-10-14 14:59:57.457171,836
2021-10-14 14:59:57.457179,576
2021-10-14 14:59:57.457187,-117
2021-10-14 14:59:57.457196,-289
2021-10-14 14:59:57.457204,73
2021-10-14 14:59:57.457213,95
2021-10-14 14:59:57.457221,-78
2021-10-14 14:59:57.457229,-14
2021-10-14 14:59:57.457238,44
2021-10-14 14:59:57.457246,7
2021-10-14 14:59:57.457255,24
2021-10-14 14:59:57.457263,58
2021-10-14 14:59:57.457271,53
2021-10-14 14:59:57.457279,71
2021-10-14 14:59:57.457288,100
2021-10-14 14:59:57.457296,112
2021-10-14 14:59:57.771436,137
2021-10-14 14:59:57.771457,161
2021-10-14 14:59:57.771466,171
2021-10-14 14:59:57.771475,196
2021-10-14 14:59:57.771484,235
2021-10-14 14:59:57.771492,277
2021-10-14 14:59:57.771501,311
2021-10-14 14:59:57.771509,331
2021-10-14 14:59:57.771518,345
2021-10-14 14:59:57.771526,363
2021-10-14 14:59:57.771534,370
2021-10-14 14:59:57.771543,358
2021-10-14 14:59:57.771551,343
2021-10-14 14:59:57.771560,314
2021-10-14 14:59:57.771568,257
2021-10-14 14:59:57.771576,188
2021-10-14 14:59:57.771585,112
2021-10-14 14:59:57.771593,29
2021-10-14 14:59:57.771601,-46
2021-10-14 14:59:57.771610,-98
2021-10-14 14:59:57.771618,-134
2021-10-14 14:59:57.771626,-154
2021-10-14 14:59:57.771635,-164
2021-10-14 14:59:57.771643,-161
2021-10-14 14:59:57.771651,-161
2021-10-14 14:59:57.771659,-159
2021-10-14 14:59:57.771668,-144
2021-10-14 14:59:57.771676,-134
2021-10-14 14:59:57.771684,-137
2021-10-14 14:59:57.771693,-132
2021-10-14 14:59:57.862950,-120
2021-10-14 14:59:57.862970,-110
2021-10-14 14:59:57.862979,-105
2021-10-14 14:59:57.862988,-103
2021-10-14 14:59:57.862996,-100
2021-10-14 14:59:57.863005,-98
2021-10-14 14:59:57.863014,-100
2021-10-14 14:59:57.863022,-115
2021-10-14 14:59:57.863031,-130
2021-10-14 14:59:57.863039,-125
2021-10-14 14:59:57.863048,-115
2021-10-14 14:59:57.863056,-112
2021-10-14 14:59:57.863064,-127
2021-10-14 14:59:57.863073,-139
2021-10-14 14:59:57.863081,-130
2021-10-14 14:59:57.863090,-115
2021-10-14 14:59:57.863099,-112
2021-10-14 14:59:57.863110,-117
2021-10-14 14:59:57.863118,-117
2021-10-14 14:59:57.863127,-112
2021-10-14 14:59:57.863135,-110
2021-10-14 14:59:57.863144,-105
2021-10-14 14:59:57.863152,-100
2021-10-14 14:59:57.863161,-100
2021-10-14 14:59:57.863169,-103
2021-10-14 14:59:57.863178,-98
2021-10-14 14:59:57.863186,-93
2021-10-14 14:59:57.863194,-80
2021-10-14 14:59:57.863202,-76
2021-10-14 14:59:57.863211,-83
2021-10-14 14:59:58.087685,-73
2021-10-14 14:59:58.087706,-58
2021-10-14 14:59:58.087716,-71
2021-10-14 14:59:58.087724,-80
2021-10-14 14:59:58.087733,-61
2021-10-14 14:59:58.087742,-51
2021-10-14 14:59:58.087750,-66
2021-10-14 14:59:58.087759,-66
2021-10-14 14:59:58.087767,-56
2021-10-14 14:59:58.087775,-58
2021-10-14 14:59:58.087784,-53
2021-10-14 14:59:58.087792,-41
2021-10-14 14:59:58.087801,-39
2021-10-14 14:59:58.087809,-49
2021-10-14 14:59:58.087817,-53
2021-10-14 14:59:58.087826,-46
2021-10-14 14:59:58.087834,-39
2021-10-14 14:59:58.087842,-39
2021-10-14 14:59:58.087851,-49
2021-10-14 14:59:58.087859,-41
2021-10-14 14:59:58.087867,-29
2021-10-14 14:59:58.087875,-4
2021-10-14 14:59:58.087884,22
2021-10-14 14:59:58.087892,29
2021-10-14 14:59:58.087900,24
2021-10-14 14:59:58.087908,14
2021-10-14 14:59:58.087917,7
2021-10-14 14:59:58.087925,-2
2021-10-14 14:59:58.087933,-9
2021-10-14 14:59:58.087942,-9
2021-10-14 14:59:58.356969,-2
2021-10-14 14:59:58.356993,7
2021-10-14 14:59:58.357002,4
2021-10-14 14:59:58.357011,-4
2021-10-14 14:59:58.357020,12
2021-10-14 14:59:58.357028,95
2021-10-14 14:59:58.357037,331
2021-10-14 14:59:58.357045,696
2021-10-14 14:59:58.357054,799
2021-10-14 14:59:58.357062,262
2021-10-14 14:59:58.357071,-311
2021-10-14 14:59:58.357079,-139
2021-10-14 14:59:58.357088,144
2021-10-14 14:59:58.357096,0
2021-10-14 14:59:58.357105,-63
2021-10-14 14:59:58.357113,36
2021-10-14 14:59:58.357122,24
2021-10-14 14:59:58.357130,-2
2021-10-14 14:59:58.357139,44
2021-10-14 14:59:58.357147,58
2021-10-14 14:59:58.357155,51
2021-10-14 14:59:58.357164,80
2021-10-14 14:59:58.357173,105
2021-10-14 14:59:58.357181,110
2021-10-14 14:59:58.357189,127
2021-10-14 14:59:58.357198,159
2021-10-14 14:59:58.357206,181
2021-10-14 14:59:58.357214,206
2021-10-14 14:59:58.357223,242
2021-10-14 14:59:58.357234,269
2021-10-14 14:59:58.538071,296
2021-10-14 14:59:58.538092,323
2021-10-14 14:59:58.538102,341
2021-10-14 14:59:58.538111,338
2021-10-14 14:59:58.538119,323
2021-10-14 14:59:58.538128,314
2021-10-14 14:59:58.538136,299
2021-10-14 14:59:58.538145,260
2021-10-14 14:59:58.538153,191
2021-10-14 14:59:58.538162,107
2021-10-14 14:59:58.538170,19
2021-10-14 14:59:58.538179,-56
2021-10-14 14:59:58.538187,-112
2021-10-14 14:59:58.538196,-149
2021-10-14 14:59:58.538204,-176
2021-10-14 14:59:58.538213,-193
2021-10-14 14:59:58.538221,-201
2021-10-14 14:59:58.538229,-201
2021-10-14 14:59:58.538238,-188
2021-10-14 14:59:58.538246,-174
2021-10-14 14:59:58.538255,-166
2021-10-14 14:59:58.538263,-161
2021-10-14 14:59:58.538271,-152
2021-10-14 14:59:58.538280,-137
2021-10-14 14:59:58.538288,-125
2021-10-14 14:59:58.538297,-122
2021-10-14 14:59:58.538305,-120
2021-10-14 14:59:58.538314,-115
2021-10-14 14:59:58.538322,-110
2021-10-14 14:59:58.538330,-103
2021-10-14 14:59:58.763039,-95
2021-10-14 14:59:58.763060,-88
2021-10-14 14:59:58.763069,-85
2021-10-14 14:59:58.763078,-98
2021-10-14 14:59:58.763086,-107
2021-10-14 14:59:58.763095,-105
2021-10-14 14:59:58.763103,-100
2021-10-14 14:59:58.763112,-95
2021-10-14 14:59:58.763120,-95
2021-10-14 14:59:58.763129,-100
2021-10-14 14:59:58.763137,-103
2021-10-14 14:59:58.763146,-95
2021-10-14 14:59:58.763154,-85
2021-10-14 14:59:58.763163,-80
2021-10-14 14:59:58.763171,-80
2021-10-14 14:59:58.763179,-85
2021-10-14 14:59:58.763188,-83
2021-10-14 14:59:58.763197,-80
2021-10-14 14:59:58.763205,-85
2021-10-14 14:59:58.763214,-78
2021-10-14 14:59:58.763222,-68
2021-10-14 14:59:58.763230,-76
2021-10-14 14:59:58.763239,-76
2021-10-14 14:59:58.763247,-63
2021-10-14 14:59:58.763256,-53
2021-10-14 14:59:58.763264,-49
2021-10-14 14:59:58.763272,-49
2021-10-14 14:59:58.763281,-61
2021-10-14 14:59:58.763290,-61
2021-10-14 14:59:58.763298,-44
2021-10-14 14:59:59.033020,-34
2021-10-14 14:59:59.033041,-34
2021-10-14 14:59:59.033051,-44
2021-10-14 14:59:59.033059,-49
2021-10-14 14:59:59.033068,-44
2021-10-14 14:59:59.033077,-34
2021-10-14 14:59:59.033085,-29
2021-10-14 14:59:59.033094,-26
2021-10-14 14:59:59.033102,-24
2021-10-14 14:59:59.033111,-34
2021-10-14 14:59:59.033120,-36
2021-10-14 14:59:59.033128,-29
2021-10-14 14:59:59.033137,-29
2021-10-14 14:59:59.033145,-31
2021-10-14 14:59:59.033154,-2
2021-10-14 14:59:59.033162,31
2021-10-14 14:59:59.033171,44
2021-10-14 14:59:59.033179,39
2021-10-14 14:59:59.033188,31
2021-10-14 14:59:59.033196,26
2021-10-14 14:59:59.033208,19
2021-10-14 14:59:59.033216,2
2021-10-14 14:59:59.033225,4
2021-10-14 14:59:59.033233,14
2021-10-14 14:59:59.033242,19
2021-10-14 14:59:59.033250,19
2021-10-14 14:59:59.033259,12
2021-10-14 14:59:59.033267,12
2021-10-14 14:59:59.033275,66
2021-10-14 14:59:59.033284,255
2021-10-14 14:59:59.393032,586
2021-10-14 14:59:59.393053,819
2021-10-14 14:59:59.393062,488
2021-10-14 14:59:59.393071,-184
2021-10-14 14:59:59.393080,-247
2021-10-14 14:59:59.393089,122
2021-10-14 14:59:59.393097,98
2021-10-14 14:59:59.393105,-51
2021-10-14 14:59:59.393114,12
2021-10-14 14:59:59.393122,31
2021-10-14 14:59:59.393131,-14
2021-10-14 14:59:59.393139,12
2021-10-14 14:59:59.393147,44
2021-10-14 14:59:59.393156,44
2021-10-14 14:59:59.393164,41
2021-10-14 14:59:59.393173,56
2021-10-14 14:59:59.393181,80
2021-10-14 14:59:59.393189,103
2021-10-14 14:59:59.393198,127
2021-10-14 14:59:59.393206,152
2021-10-14 14:59:59.393214,176
2021-10-14 14:59:59.393223,211
2021-10-14 14:59:59.393231,245
2021-10-14 14:59:59.393239,269
2021-10-14 14:59:59.393248,291
2021-10-14 14:59:59.393256,311
2021-10-14 14:59:59.393265,318
2021-10-14 14:59:59.393273,318
2021-10-14 14:59:59.393281,316
2021-10-14 14:59:59.393290,301
2021-10-14 14:59:59.482627,272
2021-10-14 14:59:59.482647,220
2021-10-14 14:59:59.482657,144
2021-10-14 14:59:59.482665,61
2021-10-14 14:59:59.482674,-4
2021-10-14 14:59:59.482683,-63
2021-10-14 14:59:59.482691,-115
2021-10-14 14:59:59.482700,-152
2021-10-14 14:59:59.482708,-169
2021-10-14 14:59:59.482716,-176
2021-10-14 14:59:59.482725,-176
2021-10-14 14:59:59.482733,-171
2021-10-14 14:59:59.482742,-164
2021-10-14 14:59:59.482750,-152
2021-10-14 14:59:59.482758,-142
2021-10-14 14:59:59.482767,-137
2021-10-14 14:59:59.482775,-125
2021-10-14 14:59:59.482783,-110
2021-10-14 14:59:59.482792,-100
2021-10-14 14:59:59.482800,-98
2021-10-14 14:59:59.482809,-100
2021-10-14 14:59:59.482817,-88
2021-10-14 14:59:59.482826,-76
2021-10-14 14:59:59.482834,-76
2021-10-14 14:59:59.482842,-76
2021-10-14 14:59:59.482851,-76
2021-10-14 14:59:59.482859,-80
2021-10-14 14:59:59.482867,-90
2021-10-14 14:59:59.482876,-90
2021-10-14 14:59:59.482884,-68
2021-10-14 14:59:59.751704,-63
2021-10-14 14:59:59.751725,-93
2021-10-14 14:59:59.751734,-93
2021-10-14 14:59:59.751743,-71
2021-10-14 14:59:59.751752,-78
2021-10-14 14:59:59.751760,-90
2021-10-14 14:59:59.751769,-88
2021-10-14 14:59:59.751777,-90
2021-10-14 14:59:59.751786,-90
2021-10-14 14:59:59.751794,-85
2021-10-14 14:59:59.751803,-76
2021-10-14 14:59:59.751811,-68
2021-10-14 14:59:59.751819,-73
2021-10-14 14:59:59.751828,-78
2021-10-14 14:59:59.751836,-68
2021-10-14 14:59:59.751844,-61
2021-10-14 14:59:59.751853,-51
2021-10-14 14:59:59.751861,-36
2021-10-14 14:59:59.751869,-39
2021-10-14 14:59:59.751878,-49
2021-10-14 14:59:59.751886,-49
2021-10-14 14:59:59.751894,-46
2021-10-14 14:59:59.751906,-39
2021-10-14 14:59:59.751914,-31
2021-10-14 14:59:59.751922,-36
2021-10-14 14:59:59.751931,-31
2021-10-14 14:59:59.751939,-22
2021-10-14 14:59:59.751947,-24
2021-10-14 14:59:59.751956,-26
2021-10-14 14:59:59.751964,-26
2021-10-14 14:59:59.933007,-39
2021-10-14 14:59:59.933028,-44
2021-10-14 14:59:59.933037,-49
2021-10-14 14:59:59.933046,-53
2021-10-14 14:59:59.933055,-34
2021-10-14 14:59:59.933063,0
2021-10-14 14:59:59.933072,7
2021-10-14 14:59:59.933080,0
2021-10-14 14:59:59.933089,-4
2021-10-14 14:59:59.933097,-9
2021-10-14 14:59:59.933106,-14
2021-10-14 14:59:59.933115,-31
2021-10-14 14:59:59.933123,-41
2021-10-14 14:59:59.933132,-22
2021-10-14 14:59:59.933140,-9
2021-10-14 14:59:59.933149,-17
2021-10-14 14:59:59.933157,-14
2021-10-14 14:59:59.933166,0
2021-10-14 14:59:59.933174,58
2021-10-14 14:59:59.933183,240
2021-10-14 14:59:59.933191,539
2021-10-14 14:59:59.933200,743
2021-10-14 14:59:59.933208,439
2021-10-14 14:59:59.933217,-211
2021-10-14 14:59:59.933225,-304
2021-10-14 14:59:59.933234,93
2021-10-14 14:59:59.933242,139
2021-10-14 14:59:59.933250,-31
2021-10-14 14:59:59.933259,-2
2021-10-14 14:59:59.933267,51
2021-10-14 15:00:00.157663,26
2021-10-14 15:00:00.157685,39
2021-10-14 15:00:00.157694,73
2021-10-14 15:00:00.157703,76
2021-10-14 15:00:00.157712,88
2021-10-14 15:00:00.157720,93
2021-10-14 15:00:00.157729,68
2021-10-14 15:00:00.157737,85
2021-10-14 15:00:00.157746,142
2021-10-14 15:00:00.157754,166
2021-10-14 15:00:00.157763,166
2021-10-14 15:00:00.157772,188
2021-10-14 15:00:00.157780,250
2021-10-14 15:00:00.157788,309
2021-10-14 15:00:00.157797,328
2021-10-14 15:00:00.157805,331
2021-10-14 15:00:00.157814,350
2021-10-14 15:00:00.157822,372
2021-10-14 15:00:00.157830,355
2021-10-14 15:00:00.157839,331
2021-10-14 15:00:00.157847,314
2021-10-14 15:00:00.157856,255
2021-10-14 15:00:00.157864,157
2021-10-14 15:00:00.157872,71
2021-10-14 15:00:00.157881,4
2021-10-14 15:00:00.157889,-63
2021-10-14 15:00:00.157898,-132
2021-10-14 15:00:00.157906,-159
2021-10-14 15:00:00.157915,-152
2021-10-14 15:00:00.157923,-166
2021-10-14 15:00:00.383051,-198
2021-10-14 15:00:00.383072,-196
2021-10-14 15:00:00.383082,-174
2021-10-14 15:00:00.383091,-181
2021-10-14 15:00:00.383099,-193
2021-10-14 15:00:00.383108,-179
2021-10-14 15:00:00.383117,-166
2021-10-14 15:00:00.383126,-159
2021-10-14 15:00:00.383134,-144
2021-10-14 15:00:00.383143,-149
2021-10-14 15:00:00.383151,-166
2021-10-14 15:00:00.383160,-161
2021-10-14 15:00:00.383168,-137
2021-10-14 15:00:00.383177,-134
2021-10-14 15:00:00.383185,-159
2021-10-14 15:00:00.383194,-169
2021-10-14 15:00:00.383202,-149
2021-10-14 15:00:00.383210,-125
2021-10-14 15:00:00.383219,-127
2021-10-14 15:00:00.383227,-139
2021-10-14 15:00:00.383236,-130
2021-10-14 15:00:00.383244,-137
2021-10-14 15:00:00.383253,-142
2021-10-14 15:00:00.383261,-117
2021-10-14 15:00:00.383270,-115
2021-10-14 15:00:00.383278,-127
2021-10-14 15:00:00.383287,-107
2021-10-14 15:00:00.383295,-105
2021-10-14 15:00:00.383304,-127
2021-10-14 15:00:00.383312,-107
2021-10-14 15:00:00.653086,-76
2021-10-14 15:00:00.653106,-100
2021-10-14 15:00:00.653116,-125
2021-10-14 15:00:00.653125,-90
2021-10-14 15:00:00.653134,-58
2021-10-14 15:00:00.653147,-76
2021-10-14 15:00:00.653155,-80
2021-10-14 15:00:00.653163,-56
2021-10-14 15:00:00.653172,-56
2021-10-14 15:00:00.653180,-68
2021-10-14 15:00:00.653189,-58
2021-10-14 15:00:00.653197,-76
2021-10-14 15:00:00.653205,-98
2021-10-14 15:00:00.653214,-53
2021-10-14 15:00:00.653222,-31
2021-10-14 15:00:00.653231,-80
2021-10-14 15:00:00.653239,-71
2021-10-14 15:00:00.653248,2
2021-10-14 15:00:00.653256,39
2021-10-14 15:00:00.653265,26
2021-10-14 15:00:00.653273,4
2021-10-14 15:00:00.653281,7
2021-10-14 15:00:00.653290,2
2021-10-14 15:00:00.653298,-22
2021-10-14 15:00:00.653307,-19
2021-10-14 15:00:00.653315,-9
2021-10-14 15:00:00.653324,-19
2021-10-14 15:00:00.653332,-24
2021-10-14 15:00:00.653341,-19
2021-10-14 15:00:00.653349,2
2021-10-14 15:00:00.878307,66
2021-10-14 15:00:00.878437,201
2021-10-14 15:00:00.878452,476
2021-10-14 15:00:00.878460,763
2021-10-14 15:00:00.878467,596
2021-10-14 15:00:00.878474,-142
2021-10-14 15:00:00.878482,-525
2021-10-14 15:00:00.878490,-68
2021-10-14 15:00:00.878498,208
2021-10-14 15:00:00.878505,-14
2021-10-14 15:00:00.878513,-39
2021-10-14 15:00:00.878522,85
2021-10-14 15:00:00.878530,71
2021-10-14 15:00:00.878538,71
2021-10-14 15:00:00.878545,103
2021-10-14 15:00:00.878553,85
2021-10-14 15:00:00.878560,95
2021-10-14 15:00:00.878568,130
2021-10-14 15:00:00.878576,125
2021-10-14 15:00:00.878583,134
2021-10-14 15:00:00.878592,184
2021-10-14 15:00:00.878600,218
2021-10-14 15:00:00.878609,238
2021-10-14 15:00:00.878617,277
2021-10-14 15:00:00.878626,309
2021-10-14 15:00:00.878634,326
2021-10-14 15:00:00.878643,360
2021-10-14 15:00:00.878651,399
2021-10-14 15:00:00.878659,422
2021-10-14 15:00:00.878668,426
2021-10-14 15:00:01.103098,407
2021-10-14 15:00:01.103118,385
2021-10-14 15:00:01.103127,372
2021-10-14 15:00:01.103134,318
2021-10-14 15:00:01.103141,203
2021-10-14 15:00:01.103149,98
2021-10-14 15:00:01.103156,31
2021-10-14 15:00:01.103164,-53
2021-10-14 15:00:01.103171,-147
2021-10-14 15:00:01.103179,-184
2021-10-14 15:00:01.103186,-191
2021-10-14 15:00:01.103194,-208
2021-10-14 15:00:01.103201,-218
2021-10-14 15:00:01.103208,-208
2021-10-14 15:00:01.103215,-213
2021-10-14 15:00:01.103223,-225
2021-10-14 15:00:01.103229,-215
2021-10-14 15:00:01.103237,-191
2021-10-14 15:00:01.103244,-171
2021-10-14 15:00:01.103252,-157
2021-10-14 15:00:01.103259,-164
2021-10-14 15:00:01.103267,-169
2021-10-14 15:00:01.103274,-144
2021-10-14 15:00:01.103281,-134
2021-10-14 15:00:01.103288,-142
2021-10-14 15:00:01.103296,-115
2021-10-14 15:00:01.103303,-90
2021-10-14 15:00:01.103310,-112
2021-10-14 15:00:01.103318,-134
2021-10-14 15:00:01.103326,-120
2021-10-14 15:00:01.372700,-90
2021-10-14 15:00:01.372720,-107
2021-10-14 15:00:01.372729,-166
2021-10-14 15:00:01.372737,-159
2021-10-14 15:00:01.372745,-107
2021-10-14 15:00:01.372753,-100
2021-10-14 15:00:01.372760,-115
2021-10-14 15:00:01.372768,-115
2021-10-14 15:00:01.372776,-117
2021-10-14 15:00:01.372783,-100
2021-10-14 15:00:01.372791,-80
2021-10-14 15:00:01.372798,-98
2021-10-14 15:00:01.372806,-100
2021-10-14 15:00:01.372814,-85
2021-10-14 15:00:01.372822,-90
2021-10-14 15:00:01.372830,-88
2021-10-14 15:00:01.372837,-80
2021-10-14 15:00:01.372845,-83
2021-10-14 15:00:01.372853,-95
2021-10-14 15:00:01.372861,-107
2021-10-14 15:00:01.372869,-80
2021-10-14 15:00:01.372876,-9
2021-10-14 15:00:01.372884,12
2021-10-14 15:00:01.372892,-24
2021-10-14 15:00:01.372900,-34
2021-10-14 15:00:01.372907,-12
2021-10-14 15:00:01.372915,-19
2021-10-14 15:00:01.372923,-58
2021-10-14 15:00:01.372931,-71
2021-10-14 15:00:01.372938,-36
2021-10-14 15:00:01.553071,-14
2021-10-14 15:00:01.553095,-29
2021-10-14 15:00:01.553106,-36
2021-10-14 15:00:01.553116,-31
2021-10-14 15:00:01.553126,14
2021-10-14 15:00:01.553135,179
2021-10-14 15:00:01.553144,471
2021-10-14 15:00:01.553154,723
2021-10-14 15:00:01.553163,532
2021-10-14 15:00:01.553172,-159
2021-10-14 15:00:01.553182,-444
2021-10-14 15:00:01.553191,-31
2021-10-14 15:00:01.553200,144
2021-10-14 15:00:01.553210,-14
2021-10-14 15:00:01.553219,17
2021-10-14 15:00:01.553228,85
2021-10-14 15:00:01.553238,46
2021-10-14 15:00:01.553247,51
2021-10-14 15:00:01.553257,80
2021-10-14 15:00:01.553266,66
2021-10-14 15:00:01.553275,61
2021-10-14 15:00:01.553284,88
2021-10-14 15:00:01.553293,130
2021-10-14 15:00:01.553302,164
2021-10-14 15:00:01.553312,171
2021-10-14 15:00:01.553321,179
2021-10-14 15:00:01.553330,223
2021-10-14 15:00:01.553340,264
2021-10-14 15:00:01.553349,287
2021-10-14 15:00:01.553358,328
2021-10-14 15:00:01.821726,372
2021-10-14 15:00:01.821747,380
2021-10-14 15:00:01.821757,377
2021-10-14 15:00:01.821766,402
2021-10-14 15:00:01.821774,407
2021-10-14 15:00:01.821783,370
2021-10-14 15:00:01.821792,311
2021-10-14 15:00:01.821800,252
2021-10-14 15:00:01.821809,191
2021-10-14 15:00:01.821817,105
2021-10-14 15:00:01.821826,-2
2021-10-14 15:00:01.821835,-85
2021-10-14 15:00:01.821843,-132
2021-10-14 15:00:01.821852,-161
2021-10-14 15:00:01.821861,-198
2021-10-14 15:00:01.821869,-215
2021-10-14 15:00:01.821878,-201
2021-10-14 15:00:01.821886,-188
2021-10-14 15:00:01.821895,-186
2021-10-14 15:00:01.821903,-193
2021-10-14 15:00:01.821912,-208
2021-10-14 15:00:01.821920,-203
2021-10-14 15:00:01.821929,-196
2021-10-14 15:00:01.821937,-206
2021-10-14 15:00:01.821946,-213
2021-10-14 15:00:01.821954,-208
2021-10-14 15:00:01.821962,-211
2021-10-14 15:00:01.821971,-215
2021-10-14 15:00:01.821979,-206
2021-10-14 15:00:01.821988,-203
2021-10-14 15:00:02.003245,-220
2021-10-14 15:00:02.003266,-213
2021-10-14 15:00:02.003276,-196
2021-10-14 15:00:02.003285,-203
2021-10-14 15:00:02.003294,-218
2021-10-14 15:00:02.003303,-211
2021-10-14 15:00:02.003311,-201
2021-10-14 15:00:02.003320,-208
2021-10-14 15:00:02.003329,-213
2021-10-14 15:00:02.003337,-191
2021-10-14 15:00:02.003346,-164
2021-10-14 15:00:02.003866,-181
2021-10-14 15:00:02.003875,-203
2021-10-14 15:00:02.003884,-184
2021-10-14 15:00:02.003893,-157
2021-10-14 15:00:02.003901,-157
2021-10-14 15:00:02.003910,-166
2021-10-14 15:00:02.003918,-171
2021-10-14 15:00:02.003927,-166
2021-10-14 15:00:02.003936,-147
2021-10-14 15:00:02.003944,-137
2021-10-14 15:00:02.003953,-120
2021-10-14 15:00:02.003961,-71
2021-10-14 15:00:02.003996,-53
2021-10-14 15:00:02.004014,-71
2021-10-14 15:00:02.004023,-73
2021-10-14 15:00:02.004032,-78
2021-10-14 15:00:02.004039,-98
2021-10-14 15:00:02.004087,-103
2021-10-14 15:00:02.004095,-83
2021-10-14 15:00:02.228029,-68
2021-10-14 15:00:02.228050,-90
2021-10-14 15:00:02.228059,-98
2021-10-14 15:00:02.228068,-68
2021-10-14 15:00:02.228077,-66
2021-10-14 15:00:02.228086,-56
2021-10-14 15:00:02.228094,107
2021-10-14 15:00:02.228103,446
2021-10-14 15:00:02.228111,696
2021-10-14 15:00:02.228120,436
2021-10-14 15:00:02.228128,-277
2021-10-14 15:00:02.228137,-515
2021-10-14 15:00:02.228145,-73
2021-10-14 15:00:02.228154,112
2021-10-14 15:00:02.228163,-39
2021-10-14 15:00:02.228171,-31
2021-10-14 15:00:02.228179,24
2021-10-14 15:00:02.228188,12
2021-10-14 15:00:02.228196,26
2021-10-14 15:00:02.228205,63
2021-10-14 15:00:02.228213,71
2021-10-14 15:00:02.228221,73
2021-10-14 15:00:02.228230,95
2021-10-14 15:00:02.228238,127
2021-10-14 15:00:02.228247,142
2021-10-14 15:00:02.228255,149
2021-10-14 15:00:02.228264,179
2021-10-14 15:00:02.228272,211
2021-10-14 15:00:02.228281,230
2021-10-14 15:00:02.228289,257
2021-10-14 15:00:02.453072,296
2021-10-14 15:00:02.453093,331
2021-10-14 15:00:02.453103,350
2021-10-14 15:00:02.453111,358
2021-10-14 15:00:02.453120,353
2021-10-14 15:00:02.453129,341
2021-10-14 15:00:02.453137,331
2021-10-14 15:00:02.453146,301
2021-10-14 15:00:02.453154,242
2021-10-14 15:00:02.453162,152
2021-10-14 15:00:02.453171,51
2021-10-14 15:00:02.453182,-26
2021-10-14 15:00:02.453191,-88
2021-10-14 15:00:02.453200,-142
2021-10-14 15:00:02.453208,-176
2021-10-14 15:00:02.453217,-196
2021-10-14 15:00:02.453225,-201
2021-10-14 15:00:02.453234,-198
2021-10-14 15:00:02.453242,-188
2021-10-14 15:00:02.453251,-176
2021-10-14 15:00:02.453259,-169
2021-10-14 15:00:02.453268,-166
2021-10-14 15:00:02.453276,-152
2021-10-14 15:00:02.453285,-132
2021-10-14 15:00:02.453293,-125
2021-10-14 15:00:02.453302,-120
2021-10-14 15:00:02.453310,-112
2021-10-14 15:00:02.453319,-107
2021-10-14 15:00:02.453327,-110
2021-10-14 15:00:02.453336,-115
2021-10-14 15:00:02.722687,-112
2021-10-14 15:00:02.722707,-110
2021-10-14 15:00:02.722717,-107
2021-10-14 15:00:02.722726,-117
2021-10-14 15:00:02.722735,-125
2021-10-14 15:00:02.722744,-117
2021-10-14 15:00:02.722752,-110
2021-10-14 15:00:02.722761,-112
2021-10-14 15:00:02.722769,-117
2021-10-14 15:00:02.722778,-125
2021-10-14 15:00:02.722786,-120
2021-10-14 15:00:02.722795,-110
2021-10-14 15:00:02.722803,-110
2021-10-14 15:00:02.722812,-110
2021-10-14 15:00:02.722821,-107
2021-10-14 15:00:02.722829,-105
2021-10-14 15:00:02.722838,-105
2021-10-14 15:00:02.722846,-110
2021-10-14 15:00:02.722854,-117
2021-10-14 15:00:02.722863,-112
2021-10-14 15:00:02.722872,-90
2021-10-14 15:00:02.722880,-66
2021-10-14 15:00:02.722889,-49
2021-10-14 15:00:02.722897,-44
2021-10-14 15:00:02.722905,-58
2021-10-14 15:00:02.722914,-78
2021-10-14 15:00:02.722922,-88
2021-10-14 15:00:02.722930,-93
2021-10-14 15:00:02.722939,-88
2021-10-14 15:00:02.722947,-83
2021-10-14 15:00:03.037478,-90
2021-10-14 15:00:03.037501,-88
2021-10-14 15:00:03.037510,-85
2021-10-14 15:00:03.037518,-90
2021-10-14 15:00:03.037526,-53
2021-10-14 15:00:03.037533,132
2021-10-14 15:00:03.037541,466
2021-10-14 15:00:03.037548,701
2021-10-14 15:00:03.037556,395
2021-10-14 15:00:03.037564,-323
2021-10-14 15:00:03.037572,-485
2021-10-14 15:00:03.037580,-36
2021-10-14 15:00:03.037588,63
2021-10-14 15:00:03.037596,-100
2021-10-14 15:00:03.037603,-49
2021-10-14 15:00:03.037611,4
2021-10-14 15:00:03.037619,-36
2021-10-14 15:00:03.037627,-12
2021-10-14 15:00:03.037634,26
2021-10-14 15:00:03.037641,26
2021-10-14 15:00:03.037648,39
2021-10-14 15:00:03.037656,68
2021-10-14 15:00:03.037664,85
2021-10-14 15:00:03.037672,105
2021-10-14 15:00:03.037680,137
2021-10-14 15:00:03.037687,166
2021-10-14 15:00:03.037695,188
2021-10-14 15:00:03.037703,225
2021-10-14 15:00:03.037711,267
2021-10-14 15:00:03.037720,301
2021-10-14 15:00:03.172740,333
2021-10-14 15:00:03.172765,358
2021-10-14 15:00:03.172773,360
2021-10-14 15:00:03.172781,353
2021-10-14 15:00:03.172789,350
2021-10-14 15:00:03.172796,336
2021-10-14 15:00:03.172804,289
2021-10-14 15:00:03.172812,218
2021-10-14 15:00:03.172819,125
2021-10-14 15:00:03.172826,26
2021-10-14 15:00:03.172834,-56
2021-10-14 15:00:03.172842,-125
2021-10-14 15:00:03.172850,-171
2021-10-14 15:00:03.172857,-198
2021-10-14 15:00:03.172865,-223
2021-10-14 15:00:03.172873,-233
2021-10-14 15:00:03.172880,-223
2021-10-14 15:00:03.172888,-218
2021-10-14 15:00:03.172895,-213
2021-10-14 15:00:03.172903,-208
2021-10-14 15:00:03.172911,-198
2021-10-14 15:00:03.172918,-188
2021-10-14 15:00:03.172926,-186
2021-10-14 15:00:03.172934,-174
2021-10-14 15:00:03.172945,-159
2021-10-14 15:00:03.172953,-154
2021-10-14 15:00:03.172961,-157
2021-10-14 15:00:03.172968,-157
2021-10-14 15:00:03.172976,-149
2021-10-14 15:00:03.172984,-144
2021-10-14 15:00:03.487750,-142
2021-10-14 15:00:03.487772,-134
2021-10-14 15:00:03.487782,-137
2021-10-14 15:00:03.487791,-147
2021-10-14 15:00:03.487799,-154
2021-10-14 15:00:03.487808,-154
2021-10-14 15:00:03.487816,-154
2021-10-14 15:00:03.487825,-164
2021-10-14 15:00:03.487833,-159
2021-10-14 15:00:03.487842,-149
2021-10-14 15:00:03.487850,-159
2021-10-14 15:00:03.487859,-174
2021-10-14 15:00:03.487867,-166
2021-10-14 15:00:03.487876,-166
2021-10-14 15:00:03.487885,-171
2021-10-14 15:00:03.487893,-164
2021-10-14 15:00:03.487902,-144
2021-10-14 15:00:03.487910,-120
2021-10-14 15:00:03.487918,-98
2021-10-14 15:00:03.487927,-83
2021-10-14 15:00:03.487935,-80
2021-10-14 15:00:03.487944,-93
2021-10-14 15:00:03.487952,-110
2021-10-14 15:00:03.487960,-122
2021-10-14 15:00:03.487969,-117
2021-10-14 15:00:03.487977,-110
2021-10-14 15:00:03.487986,-107
2021-10-14 15:00:03.487994,-100
2021-10-14 15:00:03.488003,-98
2021-10-14 15:00:03.488011,-95
2021-10-14 15:00:03.623056,-85
2021-10-14 15:00:03.623077,-17
2021-10-14 15:00:03.623087,206
2021-10-14 15:00:03.623096,559
2021-10-14 15:00:03.623105,723
2021-10-14 15:00:03.623114,247
2021-10-14 15:00:03.623122,-493
2021-10-14 15:00:03.623131,-456
2021-10-14 15:00:03.623143,26
2021-10-14 15:00:03.623151,17
2021-10-14 15:00:03.623160,-122
2021-10-14 15:00:03.623169,-36
2021-10-14 15:00:03.623177,-17
2021-10-14 15:00:03.623186,-46
2021-10-14 15:00:03.623194,-2
2021-10-14 15:00:03.623203,22
2021-10-14 15:00:03.623212,24
2021-10-14 15:00:03.623220,49
2021-10-14 15:00:03.623229,71
2021-10-14 15:00:03.623237,80
2021-10-14 15:00:03.623246,112
2021-10-14 15:00:03.623254,147
2021-10-14 15:00:03.623263,176
2021-10-14 15:00:03.623271,218
2021-10-14 15:00:03.623280,247
2021-10-14 15:00:03.623288,274
2021-10-14 15:00:03.623297,318
2021-10-14 15:00:03.623305,360
2021-10-14 15:00:03.623314,390
2021-10-14 15:00:03.623322,399
2021-10-14 15:00:03.937457,402
2021-10-14 15:00:03.937482,402
2021-10-14 15:00:03.937492,368
2021-10-14 15:00:03.937501,304
2021-10-14 15:00:03.937510,220
2021-10-14 15:00:03.937519,110
2021-10-14 15:00:03.937528,-2
2021-10-14 15:00:03.937536,-88
2021-10-14 15:00:03.937545,-159
2021-10-14 15:00:03.937554,-208
2021-10-14 15:00:03.937562,-233
2021-10-14 15:00:03.937571,-242
2021-10-14 15:00:03.937580,-242
2021-10-14 15:00:03.937588,-235
2021-10-14 15:00:03.937597,-238
2021-10-14 15:00:03.937606,-233
2021-10-14 15:00:03.937616,-220
2021-10-14 15:00:03.937646,-225
2021-10-14 15:00:03.937673,-220
2021-10-14 15:00:03.937683,-191
2021-10-14 15:00:03.937691,-174
2021-10-14 15:00:03.937700,-174
2021-10-14 15:00:03.937708,-166
2021-10-14 15:00:03.937717,-152
2021-10-14 15:00:03.937725,-134
2021-10-14 15:00:03.937734,-122
2021-10-14 15:00:03.937742,-127
2021-10-14 15:00:03.937751,-127
2021-10-14 15:00:03.937759,-122
2021-10-14 15:00:03.937768,-122
2021-10-14 15:00:04.207442,-125
2021-10-14 15:00:04.207463,-120
2021-10-14 15:00:04.207472,-112
2021-10-14 15:00:04.207480,-107
2021-10-14 15:00:04.207488,-110
2021-10-14 15:00:04.207497,-112
2021-10-14 15:00:04.207505,-117
2021-10-14 15:00:04.207513,-120
2021-10-14 15:00:04.207521,-112
2021-10-14 15:00:04.207529,-93
2021-10-14 15:00:04.207537,-66
2021-10-14 15:00:04.207545,-46
2021-10-14 15:00:04.207552,-41
2021-10-14 15:00:04.207560,-41
2021-10-14 15:00:04.207569,-58
2021-10-14 15:00:04.207577,-80
2021-10-14 15:00:04.207585,-95
2021-10-14 15:00:04.207593,-100
2021-10-14 15:00:04.207601,-85
2021-10-14 15:00:04.207609,-71
2021-10-14 15:00:04.207617,-66
2021-10-14 15:00:04.207626,-78
2021-10-14 15:00:04.207634,-88
2021-10-14 15:00:04.207642,-73
2021-10-14 15:00:04.207650,-9
2021-10-14 15:00:04.207658,188
2021-10-14 15:00:04.207666,537
2021-10-14 15:00:04.207675,755
2021-10-14 15:00:04.207683,385
2021-10-14 15:00:04.207691,-345
2021-10-14 15:00:04.298067,-426
2021-10-14 15:00:04.298088,26
2021-10-14 15:00:04.298097,76
2021-10-14 15:00:04.298106,-76
2021-10-14 15:00:04.298115,-2
2021-10-14 15:00:04.298123,41
2021-10-14 15:00:04.298132,2
2021-10-14 15:00:04.298140,29
2021-10-14 15:00:04.298149,68
2021-10-14 15:00:04.298157,68
2021-10-14 15:00:04.298166,68
2021-10-14 15:00:04.298174,88
2021-10-14 15:00:04.298182,107
2021-10-14 15:00:04.298191,125
2021-10-14 15:00:04.298199,149
2021-10-14 15:00:04.298207,169
2021-10-14 15:00:04.298216,188
2021-10-14 15:00:04.298224,228
2021-10-14 15:00:04.298233,277
2021-10-14 15:00:04.298241,316
2021-10-14 15:00:04.298249,338
2021-10-14 15:00:04.298258,345
2021-10-14 15:00:04.298266,341
2021-10-14 15:00:04.298274,333
2021-10-14 15:00:04.298283,326
2021-10-14 15:00:04.298291,304
2021-10-14 15:00:04.298299,242
2021-10-14 15:00:04.298308,144
2021-10-14 15:00:04.298316,44
2021-10-14 15:00:04.298324,-34
2021-10-14 15:00:04.568097,-105
2021-10-14 15:00:04.568120,-171
2021-10-14 15:00:04.568130,-215
2021-10-14 15:00:04.568138,-240
2021-10-14 15:00:04.568147,-255
2021-10-14 15:00:04.568155,-252
2021-10-14 15:00:04.568164,-245
2021-10-14 15:00:04.568172,-242
2021-10-14 15:00:04.568181,-240
2021-10-14 15:00:04.568189,-238
2021-10-14 15:00:04.568197,-225
2021-10-14 15:00:04.568206,-203
2021-10-14 15:00:04.568214,-191
2021-10-14 15:00:04.568223,-186
2021-10-14 15:00:04.568231,-184
2021-10-14 15:00:04.568240,-179
2021-10-14 15:00:04.568248,-179
2021-10-14 15:00:04.568256,-174
2021-10-14 15:00:04.568265,-159
2021-10-14 15:00:04.568273,-149
2021-10-14 15:00:04.568282,-144
2021-10-14 15:00:04.568290,-139
2021-10-14 15:00:04.568298,-134
2021-10-14 15:00:04.568307,-125
2021-10-14 15:00:04.568315,-125
2021-10-14 15:00:04.568323,-127
2021-10-14 15:00:04.568332,-127
2021-10-14 15:00:04.568340,-130
2021-10-14 15:00:04.568349,-127
2021-10-14 15:00:04.568357,-122
2021-10-14 15:00:04.793169,-120
2021-10-14 15:00:04.793190,-112
2021-10-14 15:00:04.793200,-115
2021-10-14 15:00:04.793209,-122
2021-10-14 15:00:04.793217,-122
2021-10-14 15:00:04.793226,-105
2021-10-14 15:00:04.793234,-56
2021-10-14 15:00:04.793243,-24
2021-10-14 15:00:04.793251,-44
2021-10-14 15:00:04.793260,-61
2021-10-14 15:00:04.793268,-58
2021-10-14 15:00:04.793277,-71
2021-10-14 15:00:04.793285,-88
2021-10-14 15:00:04.793294,-83
2021-10-14 15:00:04.793302,-83
2021-10-14 15:00:04.793311,-90
2021-10-14 15:00:04.793319,-85
2021-10-14 15:00:04.793328,-85
2021-10-14 15:00:04.793336,-90
2021-10-14 15:00:04.793345,-76
2021-10-14 15:00:04.793354,-19
2021-10-14 15:00:04.793362,152
2021-10-14 15:00:04.793371,476
2021-10-14 15:00:04.793384,733
2021-10-14 15:00:04.793393,485
2021-10-14 15:00:04.793401,-238
2021-10-14 15:00:04.793410,-488
2021-10-14 15:00:04.793418,-56
2021-10-14 15:00:04.793427,73
2021-10-14 15:00:04.793435,-107
2021-10-14 15:00:05.018095,-53
2021-10-14 15:00:05.018117,19
2021-10-14 15:00:05.018126,-26
2021-10-14 15:00:05.018135,-2
2021-10-14 15:00:05.018144,51
2021-10-14 15:00:05.018153,49
2021-10-14 15:00:05.018161,53
2021-10-14 15:00:05.018169,78
2021-10-14 15:00:05.018178,90
2021-10-14 15:00:05.018186,110
2021-10-14 15:00:05.018195,152
2021-10-14 15:00:05.018204,184
2021-10-14 15:00:05.018212,208
2021-10-14 15:00:05.018221,238
2021-10-14 15:00:05.018229,267
2021-10-14 15:00:05.018238,314
2021-10-14 15:00:05.018246,353
2021-10-14 15:00:05.018255,377
2021-10-14 15:00:05.018263,387
2021-10-14 15:00:05.018271,380
2021-10-14 15:00:05.018280,365
2021-10-14 15:00:05.018288,338
2021-10-14 15:00:05.018297,289
2021-10-14 15:00:05.018305,213
2021-10-14 15:00:05.018313,112
2021-10-14 15:00:05.018322,9
2021-10-14 15:00:05.018330,-76
2021-10-14 15:00:05.018338,-144
2021-10-14 15:00:05.018347,-188
2021-10-14 15:00:05.018355,-215
2021-10-14 15:00:05.242805,-235
2021-10-14 15:00:05.242822,-238
2021-10-14 15:00:05.242827,-238
2021-10-14 15:00:05.242832,-233
2021-10-14 15:00:05.242836,-211
2021-10-14 15:00:05.242841,-201
2021-10-14 15:00:05.242845,-208
2021-10-14 15:00:05.242849,-213
2021-10-14 15:00:05.242855,-193
2021-10-14 15:00:05.242859,-174
2021-10-14 15:00:05.242864,-169
2021-10-14 15:00:05.242868,-161
2021-10-14 15:00:05.242873,-149
2021-10-14 15:00:05.242877,-154
2021-10-14 15:00:05.242882,-159
2021-10-14 15:00:05.242886,-139
2021-10-14 15:00:05.242890,-125
2021-10-14 15:00:05.242895,-139
2021-10-14 15:00:05.242899,-147
2021-10-14 15:00:05.242904,-147
2021-10-14 15:00:05.242908,-149
2021-10-14 15:00:05.242912,-134
2021-10-14 15:00:05.242917,-122
2021-10-14 15:00:05.242921,-137
2021-10-14 15:00:05.242925,-139
2021-10-14 15:00:05.242930,-127
2021-10-14 15:00:05.242934,-122
2021-10-14 15:00:05.242939,-120
2021-10-14 15:00:05.242943,-117
2021-10-14 15:00:05.242947,-117
2021-10-14 15:00:05.467745,-122
2021-10-14 15:00:05.467767,-125
2021-10-14 15:00:05.467776,-112
2021-10-14 15:00:05.467785,-100
2021-10-14 15:00:05.467794,-103
2021-10-14 15:00:05.467802,-117
2021-10-14 15:00:05.467811,-130
2021-10-14 15:00:05.467820,-130
2021-10-14 15:00:05.467828,-115
2021-10-14 15:00:05.467837,-85
2021-10-14 15:00:05.467845,-49
2021-10-14 15:00:05.467854,-34
2021-10-14 15:00:05.467862,-36
2021-10-14 15:00:05.467870,-46
2021-10-14 15:00:05.467879,-58
2021-10-14 15:00:05.467887,-68
2021-10-14 15:00:05.467895,-71
2021-10-14 15:00:05.467904,-63
2021-10-14 15:00:05.467912,-56
2021-10-14 15:00:05.467921,-58
2021-10-14 15:00:05.467929,-51
2021-10-14 15:00:05.467938,-46
2021-10-14 15:00:05.467946,-51
2021-10-14 15:00:05.467955,-17
2021-10-14 15:00:05.467963,142
2021-10-14 15:00:05.467972,471
2021-10-14 15:00:05.467980,792
2021-10-14 15:00:05.467988,613
2021-10-14 15:00:05.467997,-130
2021-10-14 15:00:05.468005,-463
2021-10-14 15:00:05.693082,-44
2021-10-14 15:00:05.693103,137
2021-10-14 15:00:05.693113,-53
2021-10-14 15:00:05.693122,-17
2021-10-14 15:00:05.693130,76
2021-10-14 15:00:05.693139,22
2021-10-14 15:00:05.693148,12
2021-10-14 15:00:05.693156,71
2021-10-14 15:00:05.693165,88
2021-10-14 15:00:05.693173,83
2021-10-14 15:00:05.693182,103
2021-10-14 15:00:05.693190,127
2021-10-14 15:00:05.693199,139
2021-10-14 15:00:05.693207,154
2021-10-14 15:00:05.693215,184
2021-10-14 15:00:05.693224,240
2021-10-14 15:00:05.693232,287
2021-10-14 15:00:05.693241,301
2021-10-14 15:00:05.693249,328
2021-10-14 15:00:05.693257,372
2021-10-14 15:00:05.693266,402
2021-10-14 15:00:05.693274,414
2021-10-14 15:00:05.693282,409
2021-10-14 15:00:05.693291,404
2021-10-14 15:00:05.693299,395
2021-10-14 15:00:05.693307,341
2021-10-14 15:00:05.693316,255
2021-10-14 15:00:05.693324,161
2021-10-14 15:00:05.693332,53
2021-10-14 15:00:05.693341,-39
2021-10-14 15:00:06.007071,-112
2021-10-14 15:00:06.007094,-166
2021-10-14 15:00:06.007104,-203
2021-10-14 15:00:06.007113,-223
2021-10-14 15:00:06.007121,-233
2021-10-14 15:00:06.007130,-240
2021-10-14 15:00:06.007139,-235
2021-10-14 15:00:06.007148,-218
2021-10-14 15:00:06.007156,-220
2021-10-14 15:00:06.007165,-235
2021-10-14 15:00:06.007173,-218
2021-10-14 15:00:06.007182,-191
2021-10-14 15:00:06.007190,-188
2021-10-14 15:00:06.007199,-184
2021-10-14 15:00:06.007208,-161
2021-10-14 15:00:06.007217,-159
2021-10-14 15:00:06.007225,-169
2021-10-14 15:00:06.007233,-152
2021-10-14 15:00:06.007242,-122
2021-10-14 15:00:06.007250,-117
2021-10-14 15:00:06.007259,-130
2021-10-14 15:00:06.007267,-134
2021-10-14 15:00:06.007276,-125
2021-10-14 15:00:06.007284,-125
2021-10-14 15:00:06.007292,-134
2021-10-14 15:00:06.007301,-130
2021-10-14 15:00:06.007309,-120
2021-10-14 15:00:06.007318,-125
2021-10-14 15:00:06.007326,-125
2021-10-14 15:00:06.007334,-110
2021-10-14 15:00:06.142717,-103
2021-10-14 15:00:06.142737,-112
2021-10-14 15:00:06.142746,-115
2021-10-14 15:00:06.142755,-103
2021-10-14 15:00:06.142764,-90
2021-10-14 15:00:06.142772,-83
2021-10-14 15:00:06.142781,-78
2021-10-14 15:00:06.142789,-78
2021-10-14 15:00:06.142798,-76
2021-10-14 15:00:06.142806,-71
2021-10-14 15:00:06.142815,-66
2021-10-14 15:00:06.142823,-56
2021-10-14 15:00:06.142832,-51
2021-10-14 15:00:06.142841,-46
2021-10-14 15:00:06.142849,-44
2021-10-14 15:00:06.142858,-44
2021-10-14 15:00:06.142866,-49
2021-10-14 15:00:06.142875,-56
2021-10-14 15:00:06.142883,-51
2021-10-14 15:00:06.142891,-26
2021-10-14 15:00:06.142900,12
2021-10-14 15:00:06.142908,36
2021-10-14 15:00:06.142917,29
2021-10-14 15:00:06.142925,26
2021-10-14 15:00:06.142934,26
2021-10-14 15:00:06.142942,9
2021-10-14 15:00:06.142950,-7
2021-10-14 15:00:06.142959,-7
2021-10-14 15:00:06.142967,-4
2021-10-14 15:00:06.142982,-4
2021-10-14 15:00:06.413147,-2
2021-10-14 15:00:06.413168,0
2021-10-14 15:00:06.413178,-2
2021-10-14 15:00:06.413187,0
2021-10-14 15:00:06.413196,71
2021-10-14 15:00:06.413204,289
2021-10-14 15:00:06.413213,637
2021-10-14 15:00:06.413222,848
2021-10-14 15:00:06.413231,456
2021-10-14 15:00:06.413239,-272
2021-10-14 15:00:06.413248,-326
2021-10-14 15:00:06.413256,100
2021-10-14 15:00:06.413265,98
2021-10-14 15:00:06.413273,-56
2021-10-14 15:00:06.413282,19
2021-10-14 15:00:06.413291,46
2021-10-14 15:00:06.413299,2
2021-10-14 15:00:06.413308,36
2021-10-14 15:00:06.413316,68
2021-10-14 15:00:06.413325,56
2021-10-14 15:00:06.413333,71
2021-10-14 15:00:06.413342,95
2021-10-14 15:00:06.413350,110
2021-10-14 15:00:06.413359,130
2021-10-14 15:00:06.413367,157
2021-10-14 15:00:06.413376,186
2021-10-14 15:00:06.413384,211
2021-10-14 15:00:06.413392,233
2021-10-14 15:00:06.413401,269
2021-10-14 15:00:06.413409,309
2021-10-14 15:00:06.638257,331
2021-10-14 15:00:06.638278,348
2021-10-14 15:00:06.638287,363
2021-10-14 15:00:06.638296,368
2021-10-14 15:00:06.638305,355
2021-10-14 15:00:06.638313,341
2021-10-14 15:00:06.638322,306
2021-10-14 15:00:06.638331,235
2021-10-14 15:00:06.638339,142
2021-10-14 15:00:06.638348,41
2021-10-14 15:00:06.638356,-41
2021-10-14 15:00:06.638365,-98
2021-10-14 15:00:06.638373,-142
2021-10-14 15:00:06.638382,-174
2021-10-14 15:00:06.638390,-198
2021-10-14 15:00:06.638399,-215
2021-10-14 15:00:06.638407,-203
2021-10-14 15:00:06.638416,-191
2021-10-14 15:00:06.638424,-186
2021-10-14 15:00:06.638433,-171
2021-10-14 15:00:06.638441,-164
2021-10-14 15:00:06.638450,-159
2021-10-14 15:00:06.638458,-147
2021-10-14 15:00:06.638467,-132
2021-10-14 15:00:06.638475,-122
2021-10-14 15:00:06.638484,-115
2021-10-14 15:00:06.638492,-112
2021-10-14 15:00:06.638501,-110
2021-10-14 15:00:06.638509,-103
2021-10-14 15:00:06.638518,-93
2021-10-14 15:00:06.863120,-88
2021-10-14 15:00:06.863141,-90
2021-10-14 15:00:06.863151,-95
2021-10-14 15:00:06.863159,-100
2021-10-14 15:00:06.863168,-95
2021-10-14 15:00:06.863177,-88
2021-10-14 15:00:06.863185,-85
2021-10-14 15:00:06.863193,-88
2021-10-14 15:00:06.863202,-95
2021-10-14 15:00:06.863211,-98
2021-10-14 15:00:06.863219,-88
2021-10-14 15:00:06.863228,-80
2021-10-14 15:00:06.863236,-76
2021-10-14 15:00:06.863245,-80
2021-10-14 15:00:06.863253,-85
2021-10-14 15:00:06.863262,-83
2021-10-14 15:00:06.863270,-73
2021-10-14 15:00:06.863279,-66
2021-10-14 15:00:06.863287,-66
2021-10-14 15:00:06.863295,-73
2021-10-14 15:00:06.863304,-78
2021-10-14 15:00:06.863312,-73
2021-10-14 15:00:06.863321,-63
2021-10-14 15:00:06.863329,-58
2021-10-14 15:00:06.863337,-56
2021-10-14 15:00:06.863346,-53
2021-10-14 15:00:06.863354,-49
2021-10-14 15:00:06.863362,-44
2021-10-14 15:00:06.863371,-39
2021-10-14 15:00:06.863379,-31
2021-10-14 15:00:07.133114,-24
2021-10-14 15:00:07.133135,-26
2021-10-14 15:00:07.133144,-29
2021-10-14 15:00:07.133153,-19
2021-10-14 15:00:07.133162,-19
2021-10-14 15:00:07.133170,-24
2021-10-14 15:00:07.133179,-26
2021-10-14 15:00:07.133187,-31
2021-10-14 15:00:07.133196,-31
2021-10-14 15:00:07.133204,-29
2021-10-14 15:00:07.133213,-26
2021-10-14 15:00:07.133221,-19
2021-10-14 15:00:07.133230,-14
2021-10-14 15:00:07.133238,-24
2021-10-14 15:00:07.133246,-34
2021-10-14 15:00:07.133255,-39
2021-10-14 15:00:07.133264,-34
2021-10-14 15:00:07.133272,-4
2021-10-14 15:00:07.133280,34
2021-10-14 15:00:07.133289,39
2021-10-14 15:00:07.133298,24
2021-10-14 15:00:07.133306,17
2021-10-14 15:00:07.133314,7
2021-10-14 15:00:07.133323,-7
2021-10-14 15:00:07.133331,-22
2021-10-14 15:00:07.133339,-26
2021-10-14 15:00:07.133348,-19
2021-10-14 15:00:07.133356,-17
2021-10-14 15:00:07.133365,-17
2021-10-14 15:00:07.133373,-14
2021-10-14 15:00:07.313149,-12
2021-10-14 15:00:07.313171,31
2021-10-14 15:00:07.313180,193
2021-10-14 15:00:07.313189,505
2021-10-14 15:00:07.313197,821
2021-10-14 15:00:07.313206,682
2021-10-14 15:00:07.313214,-36
2021-10-14 15:00:07.313223,-409
2021-10-14 15:00:07.313231,-34
2021-10-14 15:00:07.313240,142
2021-10-14 15:00:07.313248,-41
2021-10-14 15:00:07.313256,-17
2021-10-14 15:00:07.313264,61
2021-10-14 15:00:07.313273,12
2021-10-14 15:00:07.313281,14
2021-10-14 15:00:07.313289,66
2021-10-14 15:00:07.313298,66
2021-10-14 15:00:07.313306,71
2021-10-14 15:00:07.313315,93
2021-10-14 15:00:07.313323,103
2021-10-14 15:00:07.313331,122
2021-10-14 15:00:07.313340,152
2021-10-14 15:00:07.313348,181
2021-10-14 15:00:07.313356,208
2021-10-14 15:00:07.313365,235
2021-10-14 15:00:07.313373,262
2021-10-14 15:00:07.313382,287
2021-10-14 15:00:07.313390,318
2021-10-14 15:00:07.313398,345
2021-10-14 15:00:07.313406,360
2021-10-14 15:00:07.627572,370
2021-10-14 15:00:07.627594,370
2021-10-14 15:00:07.627604,360
2021-10-14 15:00:07.627612,338
2021-10-14 15:00:07.627621,296
2021-10-14 15:00:07.627630,228
2021-10-14 15:00:07.627638,139
2021-10-14 15:00:07.627646,56
2021-10-14 15:00:07.627655,-12
2021-10-14 15:00:07.627663,-83
2021-10-14 15:00:07.627672,-134
2021-10-14 15:00:07.627681,-164
2021-10-14 15:00:07.627689,-186
2021-10-14 15:00:07.627697,-186
2021-10-14 15:00:07.627706,-179
2021-10-14 15:00:07.627714,-179
2021-10-14 15:00:07.627722,-176
2021-10-14 15:00:07.627731,-166
2021-10-14 15:00:07.627739,-154
2021-10-14 15:00:07.627748,-142
2021-10-14 15:00:07.627756,-134
2021-10-14 15:00:07.627765,-127
2021-10-14 15:00:07.627773,-120
2021-10-14 15:00:07.627781,-112
2021-10-14 15:00:07.627790,-107
2021-10-14 15:00:07.627798,-107
2021-10-14 15:00:07.627807,-100
2021-10-14 15:00:07.627815,-98
2021-10-14 15:00:07.627824,-103
2021-10-14 15:00:07.627832,-100
2021-10-14 15:00:07.763037,-98
2021-10-14 15:00:07.763057,-98
2021-10-14 15:00:07.763067,-100
2021-10-14 15:00:07.763076,-100
2021-10-14 15:00:07.763084,-103
2021-10-14 15:00:07.763093,-112
2021-10-14 15:00:07.763102,-112
2021-10-14 15:00:07.763110,-105
2021-10-14 15:00:07.763119,-105
2021-10-14 15:00:07.763127,-105
2021-10-14 15:00:07.763136,-103
2021-10-14 15:00:07.763144,-103
2021-10-14 15:00:07.763153,-100
2021-10-14 15:00:07.763162,-103
2021-10-14 15:00:07.763170,-107
2021-10-14 15:00:07.763178,-110
2021-10-14 15:00:07.763187,-120
2021-10-14 15:00:07.763196,-125
2021-10-14 15:00:07.763204,-112
2021-10-14 15:00:07.763212,-98
2021-10-14 15:00:07.763221,-100
2021-10-14 15:00:07.763229,-105
2021-10-14 15:00:07.763238,-95
2021-10-14 15:00:07.763246,-85
2021-10-14 15:00:07.763254,-85
2021-10-14 15:00:07.763263,-80
2021-10-14 15:00:07.763271,-80
2021-10-14 15:00:07.763279,-80
2021-10-14 15:00:07.763291,-80
2021-10-14 15:00:07.763300,-88
2021-10-14 15:00:08.076770,-100
2021-10-14 15:00:08.076790,-105
2021-10-14 15:00:08.076799,-90
2021-10-14 15:00:08.076808,-85
2021-10-14 15:00:08.076817,-98
2021-10-14 15:00:08.076825,-103
2021-10-14 15:00:08.076834,-90
2021-10-14 15:00:08.076842,-68
2021-10-14 15:00:08.076850,-66
2021-10-14 15:00:08.076859,-76
2021-10-14 15:00:08.076868,-78
2021-10-14 15:00:08.076876,-80
2021-10-14 15:00:08.076885,-85
2021-10-14 15:00:08.076893,-78
2021-10-14 15:00:08.076902,-49
2021-10-14 15:00:08.076910,-22
2021-10-14 15:00:08.076918,-17
2021-10-14 15:00:08.076927,-22
2021-10-14 15:00:08.076935,-22
2021-10-14 15:00:08.076944,-24
2021-10-14 15:00:08.076952,-39
2021-10-14 15:00:08.076961,-51
2021-10-14 15:00:08.076969,-46
2021-10-14 15:00:08.076978,-36
2021-10-14 15:00:08.076986,-41
2021-10-14 15:00:08.076995,-41
2021-10-14 15:00:08.077003,-24
2021-10-14 15:00:08.077011,-12
2021-10-14 15:00:08.077020,68
2021-10-14 15:00:08.077028,338
2021-10-14 15:00:08.257722,691
2021-10-14 15:00:08.257742,731
2021-10-14 15:00:08.257752,125
2021-10-14 15:00:08.257761,-471
2021-10-14 15:00:08.257769,-235
2021-10-14 15:00:08.257778,132
2021-10-14 15:00:08.257787,14
2021-10-14 15:00:08.257795,-44
2021-10-14 15:00:08.257804,58
2021-10-14 15:00:08.257812,29
2021-10-14 15:00:08.257821,-12
2021-10-14 15:00:08.257829,41
2021-10-14 15:00:08.257837,71
2021-10-14 15:00:08.257846,66
2021-10-14 15:00:08.257855,93
2021-10-14 15:00:08.257863,112
2021-10-14 15:00:08.257871,125
2021-10-14 15:00:08.257880,154
2021-10-14 15:00:08.257888,186
2021-10-14 15:00:08.257897,206
2021-10-14 15:00:08.257905,233
2021-10-14 15:00:08.257914,269
2021-10-14 15:00:08.257922,306
2021-10-14 15:00:08.257930,338
2021-10-14 15:00:08.257939,372
2021-10-14 15:00:08.257947,402
2021-10-14 15:00:08.257955,407
2021-10-14 15:00:08.257964,402
2021-10-14 15:00:08.257972,404
2021-10-14 15:00:08.257981,387
2021-10-14 15:00:08.482785,341
2021-10-14 15:00:08.482807,279
2021-10-14 15:00:08.482817,193
2021-10-14 15:00:08.482825,83
2021-10-14 15:00:08.482834,-14
2021-10-14 15:00:08.482843,-83
2021-10-14 15:00:08.482851,-142
2021-10-14 15:00:08.482860,-193
2021-10-14 15:00:08.482868,-230
2021-10-14 15:00:08.482877,-247
2021-10-14 15:00:08.482885,-247
2021-10-14 15:00:08.482894,-242
2021-10-14 15:00:08.482902,-240
2021-10-14 15:00:08.482911,-233
2021-10-14 15:00:08.482919,-235
2021-10-14 15:00:08.482928,-235
2021-10-14 15:00:08.482936,-223
2021-10-14 15:00:08.482945,-220
2021-10-14 15:00:08.482953,-220
2021-10-14 15:00:08.482962,-203
2021-10-14 15:00:08.482970,-186
2021-10-14 15:00:08.482979,-186
2021-10-14 15:00:08.482987,-181
2021-10-14 15:00:08.482996,-164
2021-10-14 15:00:08.483004,-159
2021-10-14 15:00:08.483012,-161
2021-10-14 15:00:08.483021,-164
2021-10-14 15:00:08.483029,-164
2021-10-14 15:00:08.483038,-152
2021-10-14 15:00:08.483046,-144
2021-10-14 15:00:08.708236,-142
2021-10-14 15:00:08.708258,-132
2021-10-14 15:00:08.708267,-142
2021-10-14 15:00:08.708276,-157
2021-10-14 15:00:08.708285,-142
2021-10-14 15:00:08.708293,-117
2021-10-14 15:00:08.708302,-112
2021-10-14 15:00:08.708311,-125
2021-10-14 15:00:08.708319,-137
2021-10-14 15:00:08.708328,-130
2021-10-14 15:00:08.708337,-117
2021-10-14 15:00:08.708345,-105
2021-10-14 15:00:08.708354,-98
2021-10-14 15:00:08.708362,-98
2021-10-14 15:00:08.708371,-103
2021-10-14 15:00:08.708379,-103
2021-10-14 15:00:08.708388,-95
2021-10-14 15:00:08.708396,-90
2021-10-14 15:00:08.708404,-88
2021-10-14 15:00:08.708413,-88
2021-10-14 15:00:08.708421,-98
2021-10-14 15:00:08.708430,-93
2021-10-14 15:00:08.708438,-68
2021-10-14 15:00:08.708447,-76
2021-10-14 15:00:08.708455,-90
2021-10-14 15:00:08.708464,-71
2021-10-14 15:00:08.708472,-44
2021-10-14 15:00:08.708481,-24
2021-10-14 15:00:08.708489,0
2021-10-14 15:00:08.708497,7
2021-10-14 15:00:08.933149,2
2021-10-14 15:00:08.933170,-4
2021-10-14 15:00:08.933179,-26
2021-10-14 15:00:08.933188,-39
2021-10-14 15:00:08.933197,-29
2021-10-14 15:00:08.933206,-22
2021-10-14 15:00:08.933214,-29
2021-10-14 15:00:08.933223,-39
2021-10-14 15:00:08.933231,-44
2021-10-14 15:00:08.933240,-36
2021-10-14 15:00:08.933248,-7
2021-10-14 15:00:08.933257,93
2021-10-14 15:00:08.933265,365
2021-10-14 15:00:08.933274,704
2021-10-14 15:00:08.933282,691
2021-10-14 15:00:08.933291,49
2021-10-14 15:00:08.933299,-490
2021-10-14 15:00:08.933308,-203
2021-10-14 15:00:08.933317,132
2021-10-14 15:00:08.933325,-9
2021-10-14 15:00:08.933334,-68
2021-10-14 15:00:08.933342,22
2021-10-14 15:00:08.933351,0
2021-10-14 15:00:08.933359,-17
2021-10-14 15:00:08.933368,34
2021-10-14 15:00:08.933376,53
2021-10-14 15:00:08.933384,51
2021-10-14 15:00:08.933393,73
2021-10-14 15:00:08.933401,110
2021-10-14 15:00:08.933410,132
2021-10-14 15:00:09.157840,142
2021-10-14 15:00:09.157861,164
2021-10-14 15:00:09.157871,206
2021-10-14 15:00:09.157880,240
2021-10-14 15:00:09.157889,269
2021-10-14 15:00:09.157897,311
2021-10-14 15:00:09.157906,348
2021-10-14 15:00:09.157914,365
2021-10-14 15:00:09.157923,377
2021-10-14 15:00:09.157931,385
2021-10-14 15:00:09.157940,385
2021-10-14 15:00:09.157948,382
2021-10-14 15:00:09.157957,355
2021-10-14 15:00:09.157965,287
2021-10-14 15:00:09.157974,201
2021-10-14 15:00:09.157982,110
2021-10-14 15:00:09.157991,9
2021-10-14 15:00:09.157999,-83
2021-10-14 15:00:09.158008,-147
2021-10-14 15:00:09.158017,-186
2021-10-14 15:00:09.158025,-211
2021-10-14 15:00:09.158034,-230
2021-10-14 15:00:09.158042,-238
2021-10-14 15:00:09.158051,-238
2021-10-14 15:00:09.158059,-233
2021-10-14 15:00:09.158068,-225
2021-10-14 15:00:09.158076,-213
2021-10-14 15:00:09.158085,-198
2021-10-14 15:00:09.158093,-191
2021-10-14 15:00:09.158102,-201
2021-10-14 15:00:09.427561,-196
2021-10-14 15:00:09.427583,-164
2021-10-14 15:00:09.427592,-142
2021-10-14 15:00:09.427600,-134
2021-10-14 15:00:09.427608,-132
2021-10-14 15:00:09.427615,-130
2021-10-14 15:00:09.427623,-127
2021-10-14 15:00:09.427630,-127
2021-10-14 15:00:09.427637,-127
2021-10-14 15:00:09.427644,-120
2021-10-14 15:00:09.427652,-103
2021-10-14 15:00:09.427661,-103
2021-10-14 15:00:09.427669,-120
2021-10-14 15:00:09.427677,-115
2021-10-14 15:00:09.427685,-105
2021-10-14 15:00:09.427693,-115
2021-10-14 15:00:09.427701,-115
2021-10-14 15:00:09.427709,-98
2021-10-14 15:00:09.427717,-103
2021-10-14 15:00:09.427725,-115
2021-10-14 15:00:09.427733,-100
2021-10-14 15:00:09.427742,-93
2021-10-14 15:00:09.427750,-105
2021-10-14 15:00:09.427758,-90
2021-10-14 15:00:09.427765,-73
2021-10-14 15:00:09.427773,-83
2021-10-14 15:00:09.427781,-93
2021-10-14 15:00:09.427789,-78
2021-10-14 15:00:09.427797,-71
2021-10-14 15:00:09.427805,-90
2021-10-14 15:00:09.652716,-83
2021-10-14 15:00:09.652737,-49
2021-10-14 15:00:09.652747,-63
2021-10-14 15:00:09.652756,-78
2021-10-14 15:00:09.652765,-58
2021-10-14 15:00:09.652774,-53
2021-10-14 15:00:09.652783,-34
2021-10-14 15:00:09.652792,7
2021-10-14 15:00:09.652800,26
2021-10-14 15:00:09.652809,17
2021-10-14 15:00:09.652818,-4
2021-10-14 15:00:09.652826,-22
2021-10-14 15:00:09.652835,-34
2021-10-14 15:00:09.652844,-41
2021-10-14 15:00:09.652853,-41
2021-10-14 15:00:09.652861,-29
2021-10-14 15:00:09.652870,-24
2021-10-14 15:00:09.652879,-26
2021-10-14 15:00:09.652887,-24
2021-10-14 15:00:09.652896,-12
2021-10-14 15:00:09.652905,29
2021-10-14 15:00:09.652914,230
2021-10-14 15:00:09.652922,608
2021-10-14 15:00:09.652935,868
2021-10-14 15:00:09.652943,517
2021-10-14 15:00:09.652952,-242
2021-10-14 15:00:09.652961,-375
2021-10-14 15:00:09.652970,51
2021-10-14 15:00:09.652978,66
2021-10-14 15:00:09.652987,-105
2021-10-14 15:00:09.877207,-14
2021-10-14 15:00:09.877229,31
2021-10-14 15:00:09.877239,-17
2021-10-14 15:00:09.877248,19
2021-10-14 15:00:09.877256,53
2021-10-14 15:00:09.877265,31
2021-10-14 15:00:09.877274,49
2021-10-14 15:00:09.877282,95
2021-10-14 15:00:09.877291,88
2021-10-14 15:00:09.877299,80
2021-10-14 15:00:09.877307,137
2021-10-14 15:00:09.877316,179
2021-10-14 15:00:09.877324,193
2021-10-14 15:00:09.877333,230
2021-10-14 15:00:09.877341,274
2021-10-14 15:00:09.877349,311
2021-10-14 15:00:09.877358,341
2021-10-14 15:00:09.877366,363
2021-10-14 15:00:09.877374,390
2021-10-14 15:00:09.877383,402
2021-10-14 15:00:09.877391,380
2021-10-14 15:00:09.877399,358
2021-10-14 15:00:09.877408,331
2021-10-14 15:00:09.877416,247
2021-10-14 15:00:09.877425,130
2021-10-14 15:00:09.877433,26
2021-10-14 15:00:09.877442,-56
2021-10-14 15:00:09.877450,-144
2021-10-14 15:00:09.877458,-213
2021-10-14 15:00:09.877467,-240
2021-10-14 15:00:10.101496,-269
2021-10-14 15:00:10.101517,-294
2021-10-14 15:00:10.101526,-279
2021-10-14 15:00:10.101535,-262
2021-10-14 15:00:10.101544,-272
2021-10-14 15:00:10.101552,-282
2021-10-14 15:00:10.101561,-267
2021-10-14 15:00:10.101569,-240
2021-10-14 15:00:10.101578,-223
2021-10-14 15:00:10.101586,-220
2021-10-14 15:00:10.101595,-215
2021-10-14 15:00:10.101603,-206
2021-10-14 15:00:10.101611,-196
2021-10-14 15:00:10.101620,-176
2021-10-14 15:00:10.101628,-154
2021-10-14 15:00:10.101636,-164
2021-10-14 15:00:10.101645,-179
2021-10-14 15:00:10.101653,-159
2021-10-14 15:00:10.101662,-144
2021-10-14 15:00:10.101670,-137
2021-10-14 15:00:10.101678,-127
2021-10-14 15:00:10.101687,-134
2021-10-14 15:00:10.101695,-139
2021-10-14 15:00:10.101704,-130
2021-10-14 15:00:10.101712,-120
2021-10-14 15:00:10.101720,-112
2021-10-14 15:00:10.101729,-100
2021-10-14 15:00:10.101737,-105
2021-10-14 15:00:10.101745,-112
2021-10-14 15:00:10.101754,-100
2021-10-14 15:00:10.328222,-88
2021-10-14 15:00:10.328244,-85
2021-10-14 15:00:10.328253,-95
2021-10-14 15:00:10.328262,-115
2021-10-14 15:00:10.328271,-120
2021-10-14 15:00:10.328279,-105
2021-10-14 15:00:10.328288,-80
2021-10-14 15:00:10.328297,-46
2021-10-14 15:00:10.328305,-22
2021-10-14 15:00:10.328314,-24
2021-10-14 15:00:10.328323,-29
2021-10-14 15:00:10.328360,-34
2021-10-14 15:00:10.328369,-41
2021-10-14 15:00:10.328377,-51
2021-10-14 15:00:10.328386,-66
2021-10-14 15:00:10.328394,-66
2021-10-14 15:00:10.328403,-53
2021-10-14 15:00:10.328411,-44
2021-10-14 15:00:10.328420,-36
2021-10-14 15:00:10.328428,-34
2021-10-14 15:00:10.328437,-26
2021-10-14 15:00:10.328445,34
2021-10-14 15:00:10.328454,250
2021-10-14 15:00:10.328462,620
2021-10-14 15:00:10.328470,858
2021-10-14 15:00:10.328479,485
2021-10-14 15:00:10.328487,-267
2021-10-14 15:00:10.328496,-372
2021-10-14 15:00:10.328504,61
2021-10-14 15:00:10.328513,88
2021-10-14 15:00:10.642882,-83
2021-10-14 15:00:10.642904,-7
2021-10-14 15:00:10.642913,44
2021-10-14 15:00:10.642922,-7
2021-10-14 15:00:10.642931,4
2021-10-14 15:00:10.642940,49
2021-10-14 15:00:10.642948,56
2021-10-14 15:00:10.642957,61
2021-10-14 15:00:10.642965,80
2021-10-14 15:00:10.642974,93
2021-10-14 15:00:10.642982,112
2021-10-14 15:00:10.642991,152
2021-10-14 15:00:10.642999,186
2021-10-14 15:00:10.643008,213
2021-10-14 15:00:10.643016,242
2021-10-14 15:00:10.643025,282
2021-10-14 15:00:10.643034,328
2021-10-14 15:00:10.643042,365
2021-10-14 15:00:10.643050,397
2021-10-14 15:00:10.643059,424
2021-10-14 15:00:10.643068,424
2021-10-14 15:00:10.643076,407
2021-10-14 15:00:10.643085,395
2021-10-14 15:00:10.643094,360
2021-10-14 15:00:10.643102,277
2021-10-14 15:00:10.643111,164
2021-10-14 15:00:10.643120,63
2021-10-14 15:00:10.643128,-14
2021-10-14 15:00:10.643136,-85
2021-10-14 15:00:10.643144,-149
2021-10-14 15:00:10.823199,-184
2021-10-14 15:00:10.823219,-191
2021-10-14 15:00:10.823228,-184
2021-10-14 15:00:10.823237,-184
2021-10-14 15:00:10.823245,-184
2021-10-14 15:00:10.823253,-181
2021-10-14 15:00:10.823261,-179
2021-10-14 15:00:10.823270,-171
2021-10-14 15:00:10.823278,-171
2021-10-14 15:00:10.823286,-169
2021-10-14 15:00:10.823294,-157
2021-10-14 15:00:10.823302,-142
2021-10-14 15:00:10.823311,-125
2021-10-14 15:00:10.823319,-117
2021-10-14 15:00:10.823327,-127
2021-10-14 15:00:10.823335,-122
2021-10-14 15:00:10.823343,-110
2021-10-14 15:00:10.823351,-110
2021-10-14 15:00:10.823359,-112
2021-10-14 15:00:10.823367,-112
2021-10-14 15:00:10.823375,-112
2021-10-14 15:00:10.823384,-122
2021-10-14 15:00:10.823391,-132
2021-10-14 15:00:10.823398,-127
2021-10-14 15:00:10.823405,-122
2021-10-14 15:00:10.823413,-134
2021-10-14 15:00:10.823421,-139
2021-10-14 15:00:10.823429,-134
2021-10-14 15:00:10.823440,-127
2021-10-14 15:00:10.823452,-122
2021-10-14 15:00:11.047194,-122
2021-10-14 15:00:11.047214,-122
2021-10-14 15:00:11.047224,-112
2021-10-14 15:00:11.047233,-107
2021-10-14 15:00:11.047241,-122
2021-10-14 15:00:11.047250,-130
2021-10-14 15:00:11.047258,-112
2021-10-14 15:00:11.047267,-83
2021-10-14 15:00:11.047275,-63
2021-10-14 15:00:11.047283,-58
2021-10-14 15:00:11.047292,-61
2021-10-14 15:00:11.047301,-76
2021-10-14 15:00:11.047309,-95
2021-10-14 15:00:11.047318,-110
2021-10-14 15:00:11.047326,-105
2021-10-14 15:00:11.047334,-90
2021-10-14 15:00:11.047343,-83
2021-10-14 15:00:11.047351,-83
2021-10-14 15:00:11.047359,-90
2021-10-14 15:00:11.047367,-95
2021-10-14 15:00:11.047376,-78
2021-10-14 15:00:11.047384,9
2021-10-14 15:00:11.047393,252
2021-10-14 15:00:11.047401,620
2021-10-14 15:00:11.047409,814
2021-10-14 15:00:11.047418,375
2021-10-14 15:00:11.047426,-372
2021-10-14 15:00:11.047434,-402
2021-10-14 15:00:11.047443,49
2021-10-14 15:00:11.047451,49
2021-10-14 15:00:11.272810,-103
2021-10-14 15:00:11.272831,-12
2021-10-14 15:00:11.272841,22
2021-10-14 15:00:11.272849,-24
2021-10-14 15:00:11.272858,19
2021-10-14 15:00:11.272867,53
2021-10-14 15:00:11.272875,36
2021-10-14 15:00:11.272884,63
2021-10-14 15:00:11.272892,107
2021-10-14 15:00:11.272900,117
2021-10-14 15:00:11.272909,122
2021-10-14 15:00:11.272917,147
2021-10-14 15:00:11.272926,176
2021-10-14 15:00:11.272934,206
2021-10-14 15:00:11.272942,250
2021-10-14 15:00:11.272950,301
2021-10-14 15:00:11.272959,343
2021-10-14 15:00:11.272967,375
2021-10-14 15:00:11.272976,397
2021-10-14 15:00:11.272987,414
2021-10-14 15:00:11.272996,426
2021-10-14 15:00:11.273004,417
2021-10-14 15:00:11.273012,382
2021-10-14 15:00:11.273021,328
2021-10-14 15:00:11.273029,247
2021-10-14 15:00:11.273037,137
2021-10-14 15:00:11.273046,26
2021-10-14 15:00:11.273054,-58
2021-10-14 15:00:11.273062,-125
2021-10-14 15:00:11.273071,-181
2021-10-14 15:00:11.453316,-206
2021-10-14 15:00:11.453338,-213
2021-10-14 15:00:11.453347,-218
2021-10-14 15:00:11.453356,-215
2021-10-14 15:00:11.453365,-208
2021-10-14 15:00:11.453373,-208
2021-10-14 15:00:11.453382,-203
2021-10-14 15:00:11.453390,-188
2021-10-14 15:00:11.453399,-176
2021-10-14 15:00:11.453408,-159
2021-10-14 15:00:11.453416,-142
2021-10-14 15:00:11.453425,-132
2021-10-14 15:00:11.453433,-137
2021-10-14 15:00:11.453442,-134
2021-10-14 15:00:11.453451,-122
2021-10-14 15:00:11.453459,-120
2021-10-14 15:00:11.453468,-115
2021-10-14 15:00:11.453476,-110
2021-10-14 15:00:11.453485,-110
2021-10-14 15:00:11.453493,-103
2021-10-14 15:00:11.453502,-98
2021-10-14 15:00:11.453510,-93
2021-10-14 15:00:11.453519,-95
2021-10-14 15:00:11.453527,-100
2021-10-14 15:00:11.453536,-98
2021-10-14 15:00:11.453544,-93
2021-10-14 15:00:11.453553,-90
2021-10-14 15:00:11.453561,-95
2021-10-14 15:00:11.453570,-103
2021-10-14 15:00:11.453578,-93
2021-10-14 15:00:11.677805,-85
2021-10-14 15:00:11.677838,-83
2021-10-14 15:00:11.677847,-90
2021-10-14 15:00:11.677856,-103
2021-10-14 15:00:11.677865,-95
2021-10-14 15:00:11.677873,-66
2021-10-14 15:00:11.677881,-34
2021-10-14 15:00:11.677890,-14
2021-10-14 15:00:11.677898,-17
2021-10-14 15:00:11.677907,-36
2021-10-14 15:00:11.677915,-61
2021-10-14 15:00:11.677924,-80
2021-10-14 15:00:11.677932,-80
2021-10-14 15:00:11.677941,-83
2021-10-14 15:00:11.677949,-90
2021-10-14 15:00:11.677958,-83
2021-10-14 15:00:11.677966,-76
2021-10-14 15:00:11.677977,-83
2021-10-14 15:00:11.677986,-76
2021-10-14 15:00:11.677995,-12
2021-10-14 15:00:11.678003,186
2021-10-14 15:00:11.678012,522
2021-10-14 15:00:11.678020,723
2021-10-14 15:00:11.678029,363
2021-10-14 15:00:11.678038,-341
2021-10-14 15:00:11.678046,-431
2021-10-14 15:00:11.678054,17
2021-10-14 15:00:11.678062,58
2021-10-14 15:00:11.678071,-115
2021-10-14 15:00:11.678079,-36
2021-10-14 15:00:11.902878,31
2021-10-14 15:00:11.902900,-12
2021-10-14 15:00:11.902910,14
2021-10-14 15:00:11.902919,68
2021-10-14 15:00:11.902927,68
2021-10-14 15:00:11.902936,71
2021-10-14 15:00:11.902944,71
2021-10-14 15:00:11.902953,46
2021-10-14 15:00:11.902961,76
2021-10-14 15:00:11.902970,147
2021-10-14 15:00:11.902978,174
2021-10-14 15:00:11.902987,193
2021-10-14 15:00:11.902995,250
2021-10-14 15:00:11.903004,296
2021-10-14 15:00:11.903012,318
2021-10-14 15:00:11.903021,343
2021-10-14 15:00:11.903029,380
2021-10-14 15:00:11.903038,397
2021-10-14 15:00:11.903046,390
2021-10-14 15:00:11.903055,377
2021-10-14 15:00:11.903063,360
2021-10-14 15:00:11.903072,311
2021-10-14 15:00:11.903080,228
2021-10-14 15:00:11.903089,127
2021-10-14 15:00:11.903097,24
2021-10-14 15:00:11.903105,-66
2021-10-14 15:00:11.903114,-125
2021-10-14 15:00:11.903123,-166
2021-10-14 15:00:11.903131,-201
2021-10-14 15:00:11.903140,-215
2021-10-14 15:00:12.261870,-206
2021-10-14 15:00:12.261892,-193
2021-10-14 15:00:12.261902,-201
2021-10-14 15:00:12.261911,-206
2021-10-14 15:00:12.261920,-186
2021-10-14 15:00:12.261929,-181
2021-10-14 15:00:12.261937,-186
2021-10-14 15:00:12.261946,-159
2021-10-14 15:00:12.261954,-154
2021-10-14 15:00:12.261963,-166
2021-10-14 15:00:12.261971,-139
2021-10-14 15:00:12.261980,-117
2021-10-14 15:00:12.261988,-127
2021-10-14 15:00:12.261997,-127
2021-10-14 15:00:12.262005,-112
2021-10-14 15:00:12.262013,-117
2021-10-14 15:00:12.262022,-125
2021-10-14 15:00:12.262030,-107
2021-10-14 15:00:12.262039,-98
2021-10-14 15:00:12.262047,-105
2021-10-14 15:00:12.262056,-115
2021-10-14 15:00:12.262064,-112
2021-10-14 15:00:12.262072,-98
2021-10-14 15:00:12.262081,-107
2021-10-14 15:00:12.262089,-120
2021-10-14 15:00:12.262098,-93
2021-10-14 15:00:12.262106,-73
2021-10-14 15:00:12.262115,-90
2021-10-14 15:00:12.262123,-100
2021-10-14 15:00:12.262131,-103
2021-10-14 15:00:12.398222,-110
2021-10-14 15:00:12.398246,-85
2021-10-14 15:00:12.398256,-44
2021-10-14 15:00:12.398265,-19
2021-10-14 15:00:12.398273,-9
2021-10-14 15:00:12.398282,-7
2021-10-14 15:00:12.398290,-14
2021-10-14 15:00:12.398299,-36
2021-10-14 15:00:12.398307,-61
2021-10-14 15:00:12.398316,-61
2021-10-14 15:00:12.398324,-46
2021-10-14 15:00:12.398333,-41
2021-10-14 15:00:12.398341,-39
2021-10-14 15:00:12.398350,-34
2021-10-14 15:00:12.398358,-41
2021-10-14 15:00:12.398367,-34
2021-10-14 15:00:12.398375,39
2021-10-14 15:00:12.398383,274
2021-10-14 15:00:12.398392,667
2021-10-14 15:00:12.398400,839
2021-10-14 15:00:12.398409,368
2021-10-14 15:00:12.398417,-294
2021-10-14 15:00:12.398426,-269
2021-10-14 15:00:12.398434,105
2021-10-14 15:00:12.398443,58
2021-10-14 15:00:12.398451,-73
2021-10-14 15:00:12.398459,12
2021-10-14 15:00:12.398468,51
2021-10-14 15:00:12.398476,29
2021-10-14 15:00:12.398485,53
2021-10-14 15:00:12.668199,76
2021-10-14 15:00:12.668220,88
2021-10-14 15:00:12.668229,110
2021-10-14 15:00:12.668238,122
2021-10-14 15:00:12.668247,142
2021-10-14 15:00:12.668255,176
2021-10-14 15:00:12.668264,208
2021-10-14 15:00:12.668272,245
2021-10-14 15:00:12.668280,282
2021-10-14 15:00:12.668289,311
2021-10-14 15:00:12.668297,355
2021-10-14 15:00:12.668306,407
2021-10-14 15:00:12.668314,444
2021-10-14 15:00:12.668323,461
2021-10-14 15:00:12.668331,480
2021-10-14 15:00:12.668340,512
2021-10-14 15:00:12.668348,512
2021-10-14 15:00:12.668356,471
2021-10-14 15:00:12.668365,419
2021-10-14 15:00:12.668373,350
2021-10-14 15:00:12.668381,240
2021-10-14 15:00:12.668390,132
2021-10-14 15:00:12.668398,53
2021-10-14 15:00:12.668407,-12
2021-10-14 15:00:12.668415,-56
2021-10-14 15:00:12.668423,-85
2021-10-14 15:00:12.668432,-103
2021-10-14 15:00:12.668440,-90
2021-10-14 15:00:12.668448,-68
2021-10-14 15:00:12.668457,-73
2021-10-14 15:00:12.848237,-78
2021-10-14 15:00:12.848259,-68
2021-10-14 15:00:12.848269,-56
2021-10-14 15:00:12.848278,-49
2021-10-14 15:00:12.848286,-41
2021-10-14 15:00:12.848295,-26
2021-10-14 15:00:12.848304,-12
2021-10-14 15:00:12.848312,-4
2021-10-14 15:00:12.848321,-2
2021-10-14 15:00:12.848329,4
2021-10-14 15:00:12.848338,19
2021-10-14 15:00:12.848347,29
2021-10-14 15:00:12.848355,26
2021-10-14 15:00:12.848363,22
2021-10-14 15:00:12.848372,24
2021-10-14 15:00:12.848380,22
2021-10-14 15:00:12.848389,24
2021-10-14 15:00:12.848397,26
2021-10-14 15:00:12.848405,19
2021-10-14 15:00:12.848414,7
2021-10-14 15:00:12.848422,12
2021-10-14 15:00:12.848431,31
2021-10-14 15:00:12.848439,41
2021-10-14 15:00:12.848447,29
2021-10-14 15:00:12.848456,19
2021-10-14 15:00:12.848464,24
2021-10-14 15:00:12.848472,24
2021-10-14 15:00:12.848481,14
2021-10-14 15:00:12.848489,-2
2021-10-14 15:00:12.848497,-19
2021-10-14 15:00:13.072831,-26
2021-10-14 15:00:13.072852,-4
2021-10-14 15:00:13.072862,39
2021-10-14 15:00:13.072871,71
2021-10-14 15:00:13.072880,73
2021-10-14 15:00:13.072888,58
2021-10-14 15:00:13.072897,36
2021-10-14 15:00:13.072906,14
2021-10-14 15:00:13.072914,7
2021-10-14 15:00:13.072923,9
2021-10-14 15:00:13.072932,17
2021-10-14 15:00:13.072940,14
2021-10-14 15:00:13.072949,14
2021-10-14 15:00:13.072957,19
2021-10-14 15:00:13.072966,12
2021-10-14 15:00:13.072975,17
2021-10-14 15:00:13.072983,105
2021-10-14 15:00:13.072992,348
2021-10-14 15:00:13.073000,669
2021-10-14 15:00:13.073009,699
2021-10-14 15:00:13.073017,139
2021-10-14 15:00:13.073026,-370
2021-10-14 15:00:13.073034,-122
2021-10-14 15:00:13.073043,191
2021-10-14 15:00:13.073051,51
2021-10-14 15:00:13.073060,2
2021-10-14 15:00:13.073068,90
2021-10-14 15:00:13.073076,51
2021-10-14 15:00:13.073085,31
2021-10-14 15:00:13.073093,85
2021-10-14 15:00:13.342850,100
2021-10-14 15:00:13.342871,110
2021-10-14 15:00:13.342880,142
2021-10-14 15:00:13.342889,149
2021-10-14 15:00:13.342898,152
2021-10-14 15:00:13.342906,181
2021-10-14 15:00:13.342915,211
2021-10-14 15:00:13.342924,223
2021-10-14 15:00:13.342932,260
2021-10-14 15:00:13.342941,318
2021-10-14 15:00:13.342949,345
2021-10-14 15:00:13.342958,350
2021-10-14 15:00:13.342966,392
2021-10-14 15:00:13.342975,451
2021-10-14 15:00:13.342984,461
2021-10-14 15:00:13.342992,436
2021-10-14 15:00:13.343001,426
2021-10-14 15:00:13.343009,412
2021-10-14 15:00:13.343018,353
2021-10-14 15:00:13.343026,245
2021-10-14 15:00:13.343035,117
2021-10-14 15:00:13.343043,9
2021-10-14 15:00:13.343052,-73
2021-10-14 15:00:13.343060,-149
2021-10-14 15:00:13.343069,-206
2021-10-14 15:00:13.343077,-218
2021-10-14 15:00:13.343086,-208
2021-10-14 15:00:13.343094,-220
2021-10-14 15:00:13.343103,-247
2021-10-14 15:00:13.343112,-245
2021-10-14 15:00:13.523198,-208
2021-10-14 15:00:13.523219,-186
2021-10-14 15:00:13.523229,-193
2021-10-14 15:00:13.523238,-206
2021-10-14 15:00:13.523246,-198
2021-10-14 15:00:13.523255,-174
2021-10-14 15:00:13.523263,-161
2021-10-14 15:00:13.523272,-159
2021-10-14 15:00:13.523280,-144
2021-10-14 15:00:13.523289,-137
2021-10-14 15:00:13.523297,-144
2021-10-14 15:00:13.523306,-139
2021-10-14 15:00:13.523314,-134
2021-10-14 15:00:13.523323,-130
2021-10-14 15:00:13.523331,-132
2021-10-14 15:00:13.523340,-137
2021-10-14 15:00:13.523348,-132
2021-10-14 15:00:13.523356,-134
2021-10-14 15:00:13.523365,-142
2021-10-14 15:00:13.523373,-134
2021-10-14 15:00:13.523381,-127
2021-10-14 15:00:13.523389,-132
2021-10-14 15:00:13.523398,-120
2021-10-14 15:00:13.523406,-105
2021-10-14 15:00:13.523414,-105
2021-10-14 15:00:13.523423,-100
2021-10-14 15:00:13.523431,-90
2021-10-14 15:00:13.523439,-88
2021-10-14 15:00:13.523448,-90
2021-10-14 15:00:13.523456,-100
2021-10-14 15:00:13.793227,-120
2021-10-14 15:00:13.793249,-125
2021-10-14 15:00:13.793258,-107
2021-10-14 15:00:13.793267,-80
2021-10-14 15:00:13.793276,-49
2021-10-14 15:00:13.793284,-39
2021-10-14 15:00:13.793293,-46
2021-10-14 15:00:13.793301,-36
2021-10-14 15:00:13.793310,-41
2021-10-14 15:00:13.793318,-80
2021-10-14 15:00:13.793327,-93
2021-10-14 15:00:13.793335,-66
2021-10-14 15:00:13.793343,-58
2021-10-14 15:00:13.793351,-68
2021-10-14 15:00:13.793360,-58
2021-10-14 15:00:13.793368,-51
2021-10-14 15:00:13.793376,-53
2021-10-14 15:00:13.793385,-12
2021-10-14 15:00:13.793393,164
2021-10-14 15:00:13.793401,532
2021-10-14 15:00:13.793409,861
2021-10-14 15:00:13.793418,586
2021-10-14 15:00:13.793426,-277
2021-10-14 15:00:13.793434,-588
2021-10-14 15:00:13.793443,-68
2021-10-14 15:00:13.793451,132
2021-10-14 15:00:13.793459,-71
2021-10-14 15:00:13.793468,-24
2021-10-14 15:00:13.793476,71
2021-10-14 15:00:13.793485,19
2021-10-14 15:00:14.063248,29
2021-10-14 15:00:14.063269,85
2021-10-14 15:00:14.063279,68
2021-10-14 15:00:14.063287,58
2021-10-14 15:00:14.063296,95
2021-10-14 15:00:14.063304,117
2021-10-14 15:00:14.063313,127
2021-10-14 15:00:14.063321,159
2021-10-14 15:00:14.063329,198
2021-10-14 15:00:14.063338,220
2021-10-14 15:00:14.063346,242
2021-10-14 15:00:14.063354,282
2021-10-14 15:00:14.063363,326
2021-10-14 15:00:14.063371,365
2021-10-14 15:00:14.063383,387
2021-10-14 15:00:14.063391,399
2021-10-14 15:00:14.063400,409
2021-10-14 15:00:14.063408,409
2021-10-14 15:00:14.063416,395
2021-10-14 15:00:14.063425,360
2021-10-14 15:00:14.063434,284
2021-10-14 15:00:14.063442,161
2021-10-14 15:00:14.063451,44
2021-10-14 15:00:14.063459,-51
2021-10-14 15:00:14.063467,-139
2021-10-14 15:00:14.063476,-213
2021-10-14 15:00:14.063484,-260
2021-10-14 15:00:14.063492,-274
2021-10-14 15:00:14.063501,-279
2021-10-14 15:00:14.063509,-277
2021-10-14 15:00:14.286603,-267
2021-10-14 15:00:14.286626,-260
2021-10-14 15:00:14.286635,-255
2021-10-14 15:00:14.286643,-247
2021-10-14 15:00:14.286651,-245
2021-10-14 15:00:14.286659,-240
2021-10-14 15:00:14.286667,-218
2021-10-14 15:00:14.286675,-203
2021-10-14 15:00:14.286683,-208
2021-10-14 15:00:14.286691,-203
2021-10-14 15:00:14.286698,-184
2021-10-14 15:00:14.286705,-169
2021-10-14 15:00:14.286714,-169
2021-10-14 15:00:14.286723,-166
2021-10-14 15:00:14.286731,-166
2021-10-14 15:00:14.286739,-166
2021-10-14 15:00:14.286747,-161
2021-10-14 15:00:14.286755,-157
2021-10-14 15:00:14.286763,-154
2021-10-14 15:00:14.286771,-157
2021-10-14 15:00:14.286779,-161
2021-10-14 15:00:14.286787,-159
2021-10-14 15:00:14.286795,-152
2021-10-14 15:00:14.286803,-147
2021-10-14 15:00:14.286810,-142
2021-10-14 15:00:14.286819,-139
2021-10-14 15:00:14.286827,-137
2021-10-14 15:00:14.286835,-134
2021-10-14 15:00:14.286842,-125
2021-10-14 15:00:14.286849,-117
2021-10-14 15:00:14.468217,-117
2021-10-14 15:00:14.468238,-107
2021-10-14 15:00:14.468248,-105
2021-10-14 15:00:14.468256,-120
2021-10-14 15:00:14.468265,-122
2021-10-14 15:00:14.468273,-90
2021-10-14 15:00:14.468282,-53
2021-10-14 15:00:14.468290,-41
2021-10-14 15:00:14.468298,-56
2021-10-14 15:00:14.468307,-63
2021-10-14 15:00:14.468315,-66
2021-10-14 15:00:14.468324,-76
2021-10-14 15:00:14.468333,-83
2021-10-14 15:00:14.468341,-90
2021-10-14 15:00:14.468350,-93
2021-10-14 15:00:14.468358,-90
2021-10-14 15:00:14.468366,-88
2021-10-14 15:00:14.468375,-90
2021-10-14 15:00:14.468383,-95
2021-10-14 15:00:14.468392,-66
2021-10-14 15:00:14.468400,39
2021-10-14 15:00:14.468409,314
2021-10-14 15:00:14.468417,731
2021-10-14 15:00:14.468426,853
2021-10-14 15:00:14.468434,203
2021-10-14 15:00:14.468443,-583
2021-10-14 15:00:14.468451,-424
2021-10-14 15:00:14.468459,76
2021-10-14 15:00:14.468468,0
2021-10-14 15:00:14.468476,-110
2021-10-14 15:00:14.693233,22
2021-10-14 15:00:14.693254,29
2021-10-14 15:00:14.693264,-17
2021-10-14 15:00:14.693273,44
2021-10-14 15:00:14.693281,73
2021-10-14 15:00:14.693290,51
2021-10-14 15:00:14.693298,68
2021-10-14 15:00:14.693307,90
2021-10-14 15:00:14.693315,100
2021-10-14 15:00:14.693324,122
2021-10-14 15:00:14.693332,147
2021-10-14 15:00:14.693340,174
2021-10-14 15:00:14.693349,206
2021-10-14 15:00:14.693357,233
2021-10-14 15:00:14.693366,255
2021-10-14 15:00:14.693374,296
2021-10-14 15:00:14.693383,348
2021-10-14 15:00:14.693391,385
2021-10-14 15:00:14.693400,399
2021-10-14 15:00:14.693408,397
2021-10-14 15:00:14.693417,387
2021-10-14 15:00:14.693425,365
2021-10-14 15:00:14.693433,314
2021-10-14 15:00:14.693442,220
2021-10-14 15:00:14.693450,105
2021-10-14 15:00:14.693459,-2
2021-10-14 15:00:14.693467,-90
2021-10-14 15:00:14.693475,-171
2021-10-14 15:00:14.693483,-228
2021-10-14 15:00:14.693492,-247
2021-10-14 15:00:14.962905,-257
2021-10-14 15:00:14.962927,-269
2021-10-14 15:00:14.962937,-269
2021-10-14 15:00:14.962946,-257
2021-10-14 15:00:14.962954,-245
2021-10-14 15:00:14.962963,-235
2021-10-14 15:00:14.962971,-228
2021-10-14 15:00:14.962980,-220
2021-10-14 15:00:14.962988,-203
2021-10-14 15:00:14.962997,-191
2021-10-14 15:00:14.963005,-196
2021-10-14 15:00:14.963014,-196
2021-10-14 15:00:14.963022,-186
2021-10-14 15:00:14.963031,-176
2021-10-14 15:00:14.963039,-176
2021-10-14 15:00:14.963047,-171
2021-10-14 15:00:14.963056,-161
2021-10-14 15:00:14.963064,-159
2021-10-14 15:00:14.963073,-159
2021-10-14 15:00:14.963081,-152
2021-10-14 15:00:14.963089,-154
2021-10-14 15:00:14.963098,-166
2021-10-14 15:00:14.963106,-171
2021-10-14 15:00:14.963115,-166
2021-10-14 15:00:14.963123,-157
2021-10-14 15:00:14.963131,-144
2021-10-14 15:00:14.963140,-139
2021-10-14 15:00:14.963148,-137
2021-10-14 15:00:14.963157,-134
2021-10-14 15:00:14.963165,-134
2021-10-14 15:00:15.142847,-127
2021-10-14 15:00:15.142868,-112
2021-10-14 15:00:15.142877,-103
2021-10-14 15:00:15.142886,-100
2021-10-14 15:00:15.142894,-100
2021-10-14 15:00:15.142903,-103
2021-10-14 15:00:15.142911,-105
2021-10-14 15:00:15.142920,-103
2021-10-14 15:00:15.142928,-103
2021-10-14 15:00:15.142937,-95
2021-10-14 15:00:15.142945,-53
2021-10-14 15:00:15.142954,-9
2021-10-14 15:00:15.142962,-7
2021-10-14 15:00:15.142971,-17
2021-10-14 15:00:15.142979,-24
2021-10-14 15:00:15.142987,-36
2021-10-14 15:00:15.142996,-53
2021-10-14 15:00:15.143004,-66
2021-10-14 15:00:15.143012,-56
2021-10-14 15:00:15.143021,-41
2021-10-14 15:00:15.143029,-34
2021-10-14 15:00:15.143038,-31
2021-10-14 15:00:15.143046,-36
2021-10-14 15:00:15.143055,-34
2021-10-14 15:00:15.143063,19
2021-10-14 15:00:15.143072,179
2021-10-14 15:00:15.143080,498
2021-10-14 15:00:15.143088,819
2021-10-14 15:00:15.143097,637
2021-10-14 15:00:15.143105,-171
2021-10-14 15:00:15.368256,-579
2021-10-14 15:00:15.368278,-107
2021-10-14 15:00:15.368287,164
2021-10-14 15:00:15.368297,-31
2021-10-14 15:00:15.368305,-22
2021-10-14 15:00:15.368314,76
2021-10-14 15:00:15.368322,31
2021-10-14 15:00:15.368331,34
2021-10-14 15:00:15.368340,88
2021-10-14 15:00:15.368348,83
2021-10-14 15:00:15.368357,76
2021-10-14 15:00:15.368366,98
2021-10-14 15:00:15.368374,115
2021-10-14 15:00:15.368383,144
2021-10-14 15:00:15.368392,184
2021-10-14 15:00:15.368400,193
2021-10-14 15:00:15.368409,191
2021-10-14 15:00:15.368417,223
2021-10-14 15:00:15.368426,282
2021-10-14 15:00:15.368434,328
2021-10-14 15:00:15.368443,365
2021-10-14 15:00:15.368452,399
2021-10-14 15:00:15.368460,424
2021-10-14 15:00:15.368469,434
2021-10-14 15:00:15.368477,431
2021-10-14 15:00:15.368486,419
2021-10-14 15:00:15.368494,382
2021-10-14 15:00:15.368503,296
2021-10-14 15:00:15.368511,186
2021-10-14 15:00:15.368520,88
2021-10-14 15:00:15.592884,2
2021-10-14 15:00:15.592905,-76
2021-10-14 15:00:15.592915,-132
2021-10-14 15:00:15.592924,-181
2021-10-14 15:00:15.592932,-220
2021-10-14 15:00:15.592941,-228
2021-10-14 15:00:15.592949,-220
2021-10-14 15:00:15.592958,-218
2021-10-14 15:00:15.592966,-213
2021-10-14 15:00:15.592974,-208
2021-10-14 15:00:15.592983,-196
2021-10-14 15:00:15.592992,-174
2021-10-14 15:00:15.593000,-152
2021-10-14 15:00:15.593008,-157
2021-10-14 15:00:15.593017,-164
2021-10-14 15:00:15.593025,-142
2021-10-14 15:00:15.593034,-125
2021-10-14 15:00:15.593042,-130
2021-10-14 15:00:15.593050,-127
2021-10-14 15:00:15.593059,-120
2021-10-14 15:00:15.593067,-120
2021-10-14 15:00:15.593075,-120
2021-10-14 15:00:15.593083,-120
2021-10-14 15:00:15.593092,-122
2021-10-14 15:00:15.593100,-122
2021-10-14 15:00:15.593109,-117
2021-10-14 15:00:15.593117,-112
2021-10-14 15:00:15.593125,-115
2021-10-14 15:00:15.593133,-117
2021-10-14 15:00:15.593142,-110
2021-10-14 15:00:15.952803,-107
2021-10-14 15:00:15.952827,-103
2021-10-14 15:00:15.952835,-95
2021-10-14 15:00:15.952842,-103
2021-10-14 15:00:15.952849,-115
2021-10-14 15:00:15.952856,-110
2021-10-14 15:00:15.952864,-90
2021-10-14 15:00:15.952871,-80
2021-10-14 15:00:15.952879,-93
2021-10-14 15:00:15.952886,-107
2021-10-14 15:00:15.952893,-90
2021-10-14 15:00:15.952900,-78
2021-10-14 15:00:15.952908,-88
2021-10-14 15:00:15.952915,-88
2021-10-14 15:00:15.952922,-90
2021-10-14 15:00:15.952930,-107
2021-10-14 15:00:15.952937,-80
2021-10-14 15:00:15.952944,-26
2021-10-14 15:00:15.952952,-12
2021-10-14 15:00:15.952959,-14
2021-10-14 15:00:15.952966,-12
2021-10-14 15:00:15.952973,-31
2021-10-14 15:00:15.952980,-61
2021-10-14 15:00:15.952987,-63
2021-10-14 15:00:15.952993,-51
2021-10-14 15:00:15.953000,-49
2021-10-14 15:00:15.953007,-46
2021-10-14 15:00:15.953013,-44
2021-10-14 15:00:15.953020,-39
2021-10-14 15:00:15.953027,-31
2021-10-14 15:00:16.088084,-2
2021-10-14 15:00:16.088108,112
2021-10-14 15:00:16.088117,399
2021-10-14 15:00:16.088125,745
2021-10-14 15:00:16.088133,736
2021-10-14 15:00:16.088141,66
2021-10-14 15:00:16.088149,-593
2021-10-14 15:00:16.088156,-365
2021-10-14 15:00:16.088164,58
2021-10-14 15:00:16.088172,-51
2021-10-14 15:00:16.088180,-127
2021-10-14 15:00:16.088187,7
2021-10-14 15:00:16.088195,9
2021-10-14 15:00:16.088202,-26
2021-10-14 15:00:16.088210,12
2021-10-14 15:00:16.088218,22
2021-10-14 15:00:16.088226,17
2021-10-14 15:00:16.088233,51
2021-10-14 15:00:16.088243,88
2021-10-14 15:00:16.088271,100
2021-10-14 15:00:16.088299,122
2021-10-14 15:00:16.088308,149
2021-10-14 15:00:16.088316,181
2021-10-14 15:00:16.088323,220
2021-10-14 15:00:16.088331,267
2021-10-14 15:00:16.088339,309
2021-10-14 15:00:16.088346,336
2021-10-14 15:00:16.088354,360
2021-10-14 15:00:16.088362,385
2021-10-14 15:00:16.088369,404
2021-10-14 15:00:16.446943,419
2021-10-14 15:00:16.446964,414
2021-10-14 15:00:16.446974,380
2021-10-14 15:00:16.446983,328
2021-10-14 15:00:16.446991,247
2021-10-14 15:00:16.447000,144
2021-10-14 15:00:16.447008,46
2021-10-14 15:00:16.447017,-46
2021-10-14 15:00:16.447026,-132
2021-10-14 15:00:16.447034,-191
2021-10-14 15:00:16.447043,-213
2021-10-14 15:00:16.447051,-223
2021-10-14 15:00:16.447060,-233
2021-10-14 15:00:16.447068,-233
2021-10-14 15:00:16.447076,-235
2021-10-14 15:00:16.447085,-230
2021-10-14 15:00:16.447093,-208
2021-10-14 15:00:16.447102,-193
2021-10-14 15:00:16.447110,-186
2021-10-14 15:00:16.447119,-176
2021-10-14 15:00:16.447127,-169
2021-10-14 15:00:16.447136,-159
2021-10-14 15:00:16.447144,-152
2021-10-14 15:00:16.447153,-154
2021-10-14 15:00:16.447161,-147
2021-10-14 15:00:16.447170,-137
2021-10-14 15:00:16.447178,-137
2021-10-14 15:00:16.447187,-132
2021-10-14 15:00:16.447195,-127
2021-10-14 15:00:16.447204,-132
2021-10-14 15:00:16.538252,-134
2021-10-14 15:00:16.538273,-127
2021-10-14 15:00:16.538283,-122
2021-10-14 15:00:16.538292,-125
2021-10-14 15:00:16.538300,-117
2021-10-14 15:00:16.538309,-105
2021-10-14 15:00:16.538318,-112
2021-10-14 15:00:16.538326,-132
2021-10-14 15:00:16.538334,-130
2021-10-14 15:00:16.538343,-122
2021-10-14 15:00:16.538352,-134
2021-10-14 15:00:16.538360,-142
2021-10-14 15:00:16.538369,-127
2021-10-14 15:00:16.538377,-122
2021-10-14 15:00:16.538386,-132
2021-10-14 15:00:16.538394,-130
2021-10-14 15:00:16.538403,-115
2021-10-14 15:00:16.538411,-90
2021-10-14 15:00:16.538420,-58
2021-10-14 15:00:16.538436,-41
2021-10-14 15:00:16.538445,-44
2021-10-14 15:00:16.538453,-46
2021-10-14 15:00:16.538462,-61
2021-10-14 15:00:16.538470,-78
2021-10-14 15:00:16.538479,-80
2021-10-14 15:00:16.538487,-76
2021-10-14 15:00:16.538495,-71
2021-10-14 15:00:16.538504,-63
2021-10-14 15:00:16.538512,-56
2021-10-14 15:00:16.538521,-63
2021-10-14 15:00:16.762903,-78
2021-10-14 15:00:16.762924,-53
2021-10-14 15:00:16.762934,31
2021-10-14 15:00:16.762943,274
2021-10-14 15:00:16.762951,652
2021-10-14 15:00:16.762960,733
2021-10-14 15:00:16.762968,93
2021-10-14 15:00:16.762977,-672
2021-10-14 15:00:16.762985,-537
2021-10-14 15:00:16.762994,-9
2021-10-14 15:00:16.763002,-4
2021-10-14 15:00:16.763011,-107
2021-10-14 15:00:16.763019,-7
2021-10-14 15:00:16.763027,17
2021-10-14 15:00:16.763036,-14
2021-10-14 15:00:16.763044,17
2021-10-14 15:00:16.763053,51
2021-10-14 15:00:16.763061,53
2021-10-14 15:00:16.763069,71
2021-10-14 15:00:16.763078,105
2021-10-14 15:00:16.763086,132
2021-10-14 15:00:16.763095,152
2021-10-14 15:00:16.763103,184
2021-10-14 15:00:16.763111,223
2021-10-14 15:00:16.763120,255
2021-10-14 15:00:16.763128,287
2021-10-14 15:00:16.763136,331
2021-10-14 15:00:16.763145,370
2021-10-14 15:00:16.763153,399
2021-10-14 15:00:16.763162,429
2021-10-14 15:00:16.988036,451
2021-10-14 15:00:16.988057,456
2021-10-14 15:00:16.988066,444
2021-10-14 15:00:16.988074,419
2021-10-14 15:00:16.988082,368
2021-10-14 15:00:16.988090,264
2021-10-14 15:00:16.988098,139
2021-10-14 15:00:16.988105,34
2021-10-14 15:00:16.988113,-58
2021-10-14 15:00:16.988121,-142
2021-10-14 15:00:16.988128,-196
2021-10-14 15:00:16.988136,-228
2021-10-14 15:00:16.988144,-250
2021-10-14 15:00:16.988152,-257
2021-10-14 15:00:16.988159,-252
2021-10-14 15:00:16.988167,-255
2021-10-14 15:00:16.988175,-260
2021-10-14 15:00:16.988182,-250
2021-10-14 15:00:16.988190,-225
2021-10-14 15:00:16.988198,-208
2021-10-14 15:00:16.988206,-203
2021-10-14 15:00:16.988213,-193
2021-10-14 15:00:16.988221,-179
2021-10-14 15:00:16.988228,-164
2021-10-14 15:00:16.988236,-161
2021-10-14 15:00:16.988244,-147
2021-10-14 15:00:16.988251,-122
2021-10-14 15:00:16.988259,-122
2021-10-14 15:00:16.988267,-130
2021-10-14 15:00:16.988296,-122
2021-10-14 15:00:17.257904,-120
2021-10-14 15:00:17.257925,-127
2021-10-14 15:00:17.257934,-117
2021-10-14 15:00:17.257943,-112
2021-10-14 15:00:17.257952,-117
2021-10-14 15:00:17.257960,-122
2021-10-14 15:00:17.257968,-122
2021-10-14 15:00:17.257977,-117
2021-10-14 15:00:17.257985,-110
2021-10-14 15:00:17.257994,-105
2021-10-14 15:00:17.258002,-98
2021-10-14 15:00:17.258011,-71
2021-10-14 15:00:17.258019,-46
2021-10-14 15:00:17.258028,-41
2021-10-14 15:00:17.258036,-41
2021-10-14 15:00:17.258044,-56
2021-10-14 15:00:17.258053,-83
2021-10-14 15:00:17.258061,-90
2021-10-14 15:00:17.258070,-80
2021-10-14 15:00:17.258078,-71
2021-10-14 15:00:17.258086,-66
2021-10-14 15:00:17.258095,-63
2021-10-14 15:00:17.258103,-66
2021-10-14 15:00:17.258112,-63
2021-10-14 15:00:17.258120,-39
2021-10-14 15:00:17.258129,22
2021-10-14 15:00:17.258137,223
2021-10-14 15:00:17.258146,601
2021-10-14 15:00:17.258154,799
2021-10-14 15:00:17.258162,338
2021-10-14 15:00:17.572297,-451
2021-10-14 15:00:17.572318,-532
2021-10-14 15:00:17.572329,-34
2021-10-14 15:00:17.572338,53
2021-10-14 15:00:17.572346,-78
2021-10-14 15:00:17.572355,14
2021-10-14 15:00:17.572364,58
2021-10-14 15:00:17.572372,4
2021-10-14 15:00:17.572381,24
2021-10-14 15:00:17.572389,58
2021-10-14 15:00:17.572398,49
2021-10-14 15:00:17.572406,58
2021-10-14 15:00:17.572415,95
2021-10-14 15:00:17.572423,117
2021-10-14 15:00:17.572431,134
2021-10-14 15:00:17.572440,159
2021-10-14 15:00:17.572448,181
2021-10-14 15:00:17.572457,215
2021-10-14 15:00:17.572465,264
2021-10-14 15:00:17.572474,304
2021-10-14 15:00:17.572483,345
2021-10-14 15:00:17.572491,380
2021-10-14 15:00:17.572500,392
2021-10-14 15:00:17.572508,407
2021-10-14 15:00:17.572517,424
2021-10-14 15:00:17.572525,422
2021-10-14 15:00:17.572534,392
2021-10-14 15:00:17.572542,338
2021-10-14 15:00:17.572551,250
2021-10-14 15:00:17.572559,134
2021-10-14 15:00:17.708248,31
2021-10-14 15:00:17.708275,-56
2021-10-14 15:00:17.708285,-144
2021-10-14 15:00:17.708294,-208
2021-10-14 15:00:17.708302,-220
2021-10-14 15:00:17.708310,-220
2021-10-14 15:00:17.708319,-228
2021-10-14 15:00:17.708327,-220
2021-10-14 15:00:17.708336,-211
2021-10-14 15:00:17.708344,-215
2021-10-14 15:00:17.708353,-213
2021-10-14 15:00:17.708361,-193
2021-10-14 15:00:17.708369,-179
2021-10-14 15:00:17.708378,-174
2021-10-14 15:00:17.708386,-166
2021-10-14 15:00:17.708394,-149
2021-10-14 15:00:17.708402,-134
2021-10-14 15:00:17.708411,-127
2021-10-14 15:00:17.708419,-117
2021-10-14 15:00:17.708427,-103
2021-10-14 15:00:17.708436,-103
2021-10-14 15:00:17.708444,-122
2021-10-14 15:00:17.708452,-120
2021-10-14 15:00:17.708461,-105
2021-10-14 15:00:17.708469,-105
2021-10-14 15:00:17.708477,-100
2021-10-14 15:00:17.708486,-90
2021-10-14 15:00:17.708494,-98
2021-10-14 15:00:17.708502,-110
2021-10-14 15:00:17.708510,-100
2021-10-14 15:00:17.933284,-85
2021-10-14 15:00:17.933305,-88
2021-10-14 15:00:17.933315,-95
2021-10-14 15:00:17.933324,-88
2021-10-14 15:00:17.933332,-83
2021-10-14 15:00:17.933341,-93
2021-10-14 15:00:17.933350,-107
2021-10-14 15:00:17.933358,-100
2021-10-14 15:00:17.933366,-85
2021-10-14 15:00:17.933375,-58
2021-10-14 15:00:17.933383,-26
2021-10-14 15:00:17.933392,-19
2021-10-14 15:00:17.933400,-22
2021-10-14 15:00:17.933409,-31
2021-10-14 15:00:17.933417,-58
2021-10-14 15:00:17.933426,-71
2021-10-14 15:00:17.933434,-58
2021-10-14 15:00:17.933443,-49
2021-10-14 15:00:17.933451,-53
2021-10-14 15:00:17.933459,-53
2021-10-14 15:00:17.933468,-49
2021-10-14 15:00:17.933476,-49
2021-10-14 15:00:17.933485,-26
2021-10-14 15:00:17.933493,44
2021-10-14 15:00:17.933501,230
2021-10-14 15:00:17.933510,571
2021-10-14 15:00:17.933518,831
2021-10-14 15:00:17.933527,564
2021-10-14 15:00:17.933535,-203
2021-10-14 15:00:17.933543,-512
2021-10-14 15:00:18.157933,-73
2021-10-14 15:00:18.157953,115
2021-10-14 15:00:18.157963,-68
2021-10-14 15:00:18.157972,-24
2021-10-14 15:00:18.157981,71
2021-10-14 15:00:18.157989,26
2021-10-14 15:00:18.157997,26
2021-10-14 15:00:18.158006,56
2021-10-14 15:00:18.158015,39
2021-10-14 15:00:18.158023,39
2021-10-14 15:00:18.158032,68
2021-10-14 15:00:18.158040,85
2021-10-14 15:00:18.158049,105
2021-10-14 15:00:18.158057,127
2021-10-14 15:00:18.158065,147
2021-10-14 15:00:18.158074,174
2021-10-14 15:00:18.158082,208
2021-10-14 15:00:18.158091,250
2021-10-14 15:00:18.158099,294
2021-10-14 15:00:18.158108,323
2021-10-14 15:00:18.158116,353
2021-10-14 15:00:18.158125,385
2021-10-14 15:00:18.158133,395
2021-10-14 15:00:18.158141,382
2021-10-14 15:00:18.158150,372
2021-10-14 15:00:18.158158,348
2021-10-14 15:00:18.158166,277
2021-10-14 15:00:18.158175,181
2021-10-14 15:00:18.158183,88
2021-10-14 15:00:18.158192,-4
2021-10-14 15:00:18.426953,-73
2021-10-14 15:00:18.426975,-125
2021-10-14 15:00:18.426985,-174
2021-10-14 15:00:18.426993,-198
2021-10-14 15:00:18.427002,-186
2021-10-14 15:00:18.427010,-186
2021-10-14 15:00:18.427019,-193
2021-10-14 15:00:18.427027,-188
2021-10-14 15:00:18.427036,-181
2021-10-14 15:00:18.427044,-174
2021-10-14 15:00:18.427052,-164
2021-10-14 15:00:18.427061,-154
2021-10-14 15:00:18.427069,-147
2021-10-14 15:00:18.427078,-139
2021-10-14 15:00:18.427086,-130
2021-10-14 15:00:18.427095,-127
2021-10-14 15:00:18.427103,-125
2021-10-14 15:00:18.427112,-112
2021-10-14 15:00:18.427120,-105
2021-10-14 15:00:18.427128,-105
2021-10-14 15:00:18.427137,-103
2021-10-14 15:00:18.427145,-105
2021-10-14 15:00:18.427153,-105
2021-10-14 15:00:18.427162,-90
2021-10-14 15:00:18.427170,-80
2021-10-14 15:00:18.427178,-93
2021-10-14 15:00:18.427187,-98
2021-10-14 15:00:18.427195,-78
2021-10-14 15:00:18.427204,-58
2021-10-14 15:00:18.427212,-66
2021-10-14 15:00:18.608293,-73
2021-10-14 15:00:18.608314,-61
2021-10-14 15:00:18.608323,-53
2021-10-14 15:00:18.608332,-71
2021-10-14 15:00:18.608341,-85
2021-10-14 15:00:18.608349,-83
2021-10-14 15:00:18.608357,-78
2021-10-14 15:00:18.608366,-44
2021-10-14 15:00:18.608374,0
2021-10-14 15:00:18.608383,-2
2021-10-14 15:00:18.608391,-19
2021-10-14 15:00:18.608399,-29
2021-10-14 15:00:18.608408,-46
2021-10-14 15:00:18.608416,-66
2021-10-14 15:00:18.608424,-68
2021-10-14 15:00:18.608432,-56
2021-10-14 15:00:18.608441,-44
2021-10-14 15:00:18.608449,-44
2021-10-14 15:00:18.608457,-53
2021-10-14 15:00:18.608466,-49
2021-10-14 15:00:18.608474,-29
2021-10-14 15:00:18.608482,12
2021-10-14 15:00:18.608491,166
2021-10-14 15:00:18.608499,483
2021-10-14 15:00:18.608507,817
2021-10-14 15:00:18.608515,733
2021-10-14 15:00:18.608524,4
2021-10-14 15:00:18.608532,-534
2021-10-14 15:00:18.608540,-188
2021-10-14 15:00:18.608549,152
2021-10-14 15:00:18.923319,0
2021-10-14 15:00:18.923341,-29
2021-10-14 15:00:18.923350,88
2021-10-14 15:00:18.923359,68
2021-10-14 15:00:18.923368,46
2021-10-14 15:00:18.923377,83
2021-10-14 15:00:18.923385,88
2021-10-14 15:00:18.923394,95
2021-10-14 15:00:18.923402,127
2021-10-14 15:00:18.923411,134
2021-10-14 15:00:18.923419,139
2021-10-14 15:00:18.923428,169
2021-10-14 15:00:18.923436,184
2021-10-14 15:00:18.923445,196
2021-10-14 15:00:18.923453,225
2021-10-14 15:00:18.923462,260
2021-10-14 15:00:18.923470,294
2021-10-14 15:00:18.923479,323
2021-10-14 15:00:18.923487,348
2021-10-14 15:00:18.923496,370
2021-10-14 15:00:18.923504,377
2021-10-14 15:00:18.923513,377
2021-10-14 15:00:18.923521,375
2021-10-14 15:00:18.923530,338
2021-10-14 15:00:18.923538,274
2021-10-14 15:00:18.923547,203
2021-10-14 15:00:18.923555,112
2021-10-14 15:00:18.923564,14
2021-10-14 15:00:18.923572,-63
2021-10-14 15:00:18.923581,-130
2021-10-14 15:00:19.057908,-169
2021-10-14 15:00:19.057928,-186
2021-10-14 15:00:19.057938,-191
2021-10-14 15:00:19.057947,-193
2021-10-14 15:00:19.057955,-188
2021-10-14 15:00:19.057964,-179
2021-10-14 15:00:19.057972,-171
2021-10-14 15:00:19.057981,-169
2021-10-14 15:00:19.057989,-164
2021-10-14 15:00:19.057997,-166
2021-10-14 15:00:19.058006,-176
2021-10-14 15:00:19.058014,-171
2021-10-14 15:00:19.058023,-154
2021-10-14 15:00:19.058031,-149
2021-10-14 15:00:19.058040,-159
2021-10-14 15:00:19.058048,-161
2021-10-14 15:00:19.058056,-159
2021-10-14 15:00:19.058064,-154
2021-10-14 15:00:19.058073,-144
2021-10-14 15:00:19.058081,-144
2021-10-14 15:00:19.058089,-142
2021-10-14 15:00:19.058098,-137
2021-10-14 15:00:19.058106,-147
2021-10-14 15:00:19.058114,-157
2021-10-14 15:00:19.058122,-147
2021-10-14 15:00:19.058131,-137
2021-10-14 15:00:19.058139,-137
2021-10-14 15:00:19.058147,-130
2021-10-14 15:00:19.058155,-122
2021-10-14 15:00:19.058164,-122
2021-10-14 15:00:19.283260,-115
2021-10-14 15:00:19.283281,-103
2021-10-14 15:00:19.283290,-117
2021-10-14 15:00:19.283299,-130
2021-10-14 15:00:19.283307,-100
2021-10-14 15:00:19.283316,-58
2021-10-14 15:00:19.283324,-44
2021-10-14 15:00:19.283333,-46
2021-10-14 15:00:19.283341,-46
2021-10-14 15:00:19.283350,-56
2021-10-14 15:00:19.283358,-83
2021-10-14 15:00:19.283366,-95
2021-10-14 15:00:19.283375,-90
2021-10-14 15:00:19.283383,-83
2021-10-14 15:00:19.283392,-71
2021-10-14 15:00:19.283400,-71
2021-10-14 15:00:19.283409,-80
2021-10-14 15:00:19.283417,-80
2021-10-14 15:00:19.283425,-61
2021-10-14 15:00:19.283434,17
2021-10-14 15:00:19.283443,269
2021-10-14 15:00:19.283451,652
2021-10-14 15:00:19.283459,797
2021-10-14 15:00:19.283468,260
2021-10-14 15:00:19.283476,-512
2021-10-14 15:00:19.283484,-466
2021-10-14 15:00:19.283493,31
2021-10-14 15:00:19.283501,39
2021-10-14 15:00:19.283510,-85
2021-10-14 15:00:19.283518,19
2021-10-14 15:00:19.553382,41
2021-10-14 15:00:19.553405,-2
2021-10-14 15:00:19.553414,39
2021-10-14 15:00:19.553423,61
2021-10-14 15:00:19.553432,46
2021-10-14 15:00:19.553444,71
2021-10-14 15:00:19.553453,105
2021-10-14 15:00:19.553462,122
2021-10-14 15:00:19.553470,142
2021-10-14 15:00:19.553479,166
2021-10-14 15:00:19.553488,193
2021-10-14 15:00:19.553497,228
2021-10-14 15:00:19.553505,274
2021-10-14 15:00:19.553514,311
2021-10-14 15:00:19.553522,336
2021-10-14 15:00:19.553531,353
2021-10-14 15:00:19.553540,370
2021-10-14 15:00:19.553548,390
2021-10-14 15:00:19.553557,399
2021-10-14 15:00:19.553566,375
2021-10-14 15:00:19.553574,331
2021-10-14 15:00:19.553583,282
2021-10-14 15:00:19.553591,206
2021-10-14 15:00:19.553600,103
2021-10-14 15:00:19.553609,-4
2021-10-14 15:00:19.553617,-90
2021-10-14 15:00:19.553626,-157
2021-10-14 15:00:19.553635,-203
2021-10-14 15:00:19.553642,-240
2021-10-14 15:00:19.553650,-264
2021-10-14 15:00:19.778304,-272
2021-10-14 15:00:19.778333,-260
2021-10-14 15:00:19.778342,-255
2021-10-14 15:00:19.778350,-252
2021-10-14 15:00:19.778359,-235
2021-10-14 15:00:19.778367,-215
2021-10-14 15:00:19.778376,-208
2021-10-14 15:00:19.778384,-201
2021-10-14 15:00:19.778392,-193
2021-10-14 15:00:19.778401,-186
2021-10-14 15:00:19.778409,-181
2021-10-14 15:00:19.778418,-179
2021-10-14 15:00:19.778426,-174
2021-10-14 15:00:19.778434,-164
2021-10-14 15:00:19.778442,-166
2021-10-14 15:00:19.778451,-171
2021-10-14 15:00:19.778459,-164
2021-10-14 15:00:19.778467,-154
2021-10-14 15:00:19.778476,-157
2021-10-14 15:00:19.778484,-161
2021-10-14 15:00:19.778492,-161
2021-10-14 15:00:19.778501,-161
2021-10-14 15:00:19.778509,-159
2021-10-14 15:00:19.778517,-154
2021-10-14 15:00:19.778526,-149
2021-10-14 15:00:19.778534,-120
2021-10-14 15:00:19.778542,-78
2021-10-14 15:00:19.778550,-68
2021-10-14 15:00:19.778558,-76
2021-10-14 15:00:19.778567,-83
2021-10-14 15:00:20.047952,-100
2021-10-14 15:00:20.047973,-115
2021-10-14 15:00:20.047983,-115
2021-10-14 15:00:20.047992,-110
2021-10-14 15:00:20.048000,-103
2021-10-14 15:00:20.048008,-98
2021-10-14 15:00:20.048017,-100
2021-10-14 15:00:20.048025,-100
2021-10-14 15:00:20.048034,-107
2021-10-14 15:00:20.048042,-98
2021-10-14 15:00:20.048051,-26
2021-10-14 15:00:20.048059,208
2021-10-14 15:00:20.048067,593
2021-10-14 15:00:20.048076,750
2021-10-14 15:00:20.048084,215
2021-10-14 15:00:20.048093,-561
2021-10-14 15:00:20.048101,-517
2021-10-14 15:00:20.048109,7
2021-10-14 15:00:20.048118,31
2021-10-14 15:00:20.048126,-110
2021-10-14 15:00:20.048134,-9
2021-10-14 15:00:20.048143,19
2021-10-14 15:00:20.048152,-34
2021-10-14 15:00:20.048160,-2
2021-10-14 15:00:20.048169,34
2021-10-14 15:00:20.048177,31
2021-10-14 15:00:20.048186,53
2021-10-14 15:00:20.048194,90
2021-10-14 15:00:20.048202,112
2021-10-14 15:00:20.048210,127
2021-10-14 15:00:20.228355,157
2021-10-14 15:00:20.228376,198
2021-10-14 15:00:20.228385,238
2021-10-14 15:00:20.228394,269
2021-10-14 15:00:20.228401,309
2021-10-14 15:00:20.228409,353
2021-10-14 15:00:20.228417,392
2021-10-14 15:00:20.228424,414
2021-10-14 15:00:20.228431,426
2021-10-14 15:00:20.228439,426
2021-10-14 15:00:20.228448,412
2021-10-14 15:00:20.228457,387
2021-10-14 15:00:20.228465,331
2021-10-14 15:00:20.228473,230
2021-10-14 15:00:20.228482,112
2021-10-14 15:00:20.228490,9
2021-10-14 15:00:20.228498,-71
2021-10-14 15:00:20.228507,-134
2021-10-14 15:00:20.228515,-191
2021-10-14 15:00:20.228523,-233
2021-10-14 15:00:20.228532,-240
2021-10-14 15:00:20.228540,-235
2021-10-14 15:00:20.228550,-240
2021-10-14 15:00:20.228569,-242
2021-10-14 15:00:20.228591,-230
2021-10-14 15:00:20.228620,-225
2021-10-14 15:00:20.228631,-223
2021-10-14 15:00:20.228641,-213
2021-10-14 15:00:20.228650,-193
2021-10-14 15:00:20.228658,-174
2021-10-14 15:00:20.541878,-176
2021-10-14 15:00:20.541899,-186
2021-10-14 15:00:20.541908,-171
2021-10-14 15:00:20.541917,-157
2021-10-14 15:00:20.541926,-159
2021-10-14 15:00:20.541935,-154
2021-10-14 15:00:20.541943,-149
2021-10-14 15:00:20.541952,-154
2021-10-14 15:00:20.541960,-154
2021-10-14 15:00:20.541968,-152
2021-10-14 15:00:20.541977,-142
2021-10-14 15:00:20.541985,-137
2021-10-14 15:00:20.541993,-147
2021-10-14 15:00:20.542002,-152
2021-10-14 15:00:20.542011,-147
2021-10-14 15:00:20.542019,-149
2021-10-14 15:00:20.542027,-147
2021-10-14 15:00:20.542036,-130
2021-10-14 15:00:20.542044,-95
2021-10-14 15:00:20.542052,-61
2021-10-14 15:00:20.542061,-53
2021-10-14 15:00:20.542069,-61
2021-10-14 15:00:20.542077,-66
2021-10-14 15:00:20.542085,-83
2021-10-14 15:00:20.542094,-105
2021-10-14 15:00:20.542102,-98
2021-10-14 15:00:20.542110,-90
2021-10-14 15:00:20.542119,-107
2021-10-14 15:00:20.542127,-115
2021-10-14 15:00:20.542135,-105
2021-10-14 15:00:20.767713,-95
2021-10-14 15:00:20.767735,-90
2021-10-14 15:00:20.767745,-56
2021-10-14 15:00:20.767754,85
2021-10-14 15:00:20.767763,417
2021-10-14 15:00:20.767771,765
2021-10-14 15:00:20.767780,652
2021-10-14 15:00:20.767788,-93
2021-10-14 15:00:20.767797,-593
2021-10-14 15:00:20.767805,-220
2021-10-14 15:00:20.767814,100
2021-10-14 15:00:20.767822,-63
2021-10-14 15:00:20.767831,-85
2021-10-14 15:00:20.767839,22
2021-10-14 15:00:20.767848,-7
2021-10-14 15:00:20.767857,-17
2021-10-14 15:00:20.767865,41
2021-10-14 15:00:20.767874,41
2021-10-14 15:00:20.767882,26
2021-10-14 15:00:20.767891,71
2021-10-14 15:00:20.767899,103
2021-10-14 15:00:20.767908,107
2021-10-14 15:00:20.767916,134
2021-10-14 15:00:20.767925,176
2021-10-14 15:00:20.767933,208
2021-10-14 15:00:20.767942,240
2021-10-14 15:00:20.767950,274
2021-10-14 15:00:20.767959,316
2021-10-14 15:00:20.767967,360
2021-10-14 15:00:20.767976,387
2021-10-14 15:00:20.948329,397
2021-10-14 15:00:20.948350,412
2021-10-14 15:00:20.948359,419
2021-10-14 15:00:20.948368,397
2021-10-14 15:00:20.948377,353
2021-10-14 15:00:20.948385,289
2021-10-14 15:00:20.948394,193
2021-10-14 15:00:20.948402,90
2021-10-14 15:00:20.948411,0
2021-10-14 15:00:20.948419,-80
2021-10-14 15:00:20.948428,-139
2021-10-14 15:00:20.948436,-179
2021-10-14 15:00:20.948444,-198
2021-10-14 15:00:20.948453,-203
2021-10-14 15:00:20.948461,-208
2021-10-14 15:00:20.948469,-218
2021-10-14 15:00:20.948478,-220
2021-10-14 15:00:20.948486,-215
2021-10-14 15:00:20.948494,-213
2021-10-14 15:00:20.948503,-198
2021-10-14 15:00:20.948511,-181
2021-10-14 15:00:20.948519,-181
2021-10-14 15:00:20.948528,-181
2021-10-14 15:00:20.948536,-166
2021-10-14 15:00:20.948544,-157
2021-10-14 15:00:20.948552,-157
2021-10-14 15:00:20.948561,-157
2021-10-14 15:00:20.948569,-147
2021-10-14 15:00:20.948577,-147
2021-10-14 15:00:20.948585,-157
2021-10-14 15:00:21.172955,-152
2021-10-14 15:00:21.172975,-144
2021-10-14 15:00:21.172985,-154
2021-10-14 15:00:21.172994,-166
2021-10-14 15:00:21.173002,-171
2021-10-14 15:00:21.173010,-171
2021-10-14 15:00:21.173019,-164
2021-10-14 15:00:21.173027,-166
2021-10-14 15:00:21.173036,-171
2021-10-14 15:00:21.173044,-154
2021-10-14 15:00:21.173053,-125
2021-10-14 15:00:21.173061,-98
2021-10-14 15:00:21.173070,-83
2021-10-14 15:00:21.173078,-78
2021-10-14 15:00:21.173087,-88
2021-10-14 15:00:21.173095,-117
2021-10-14 15:00:21.173104,-137
2021-10-14 15:00:21.173112,-132
2021-10-14 15:00:21.173120,-115
2021-10-14 15:00:21.173129,-103
2021-10-14 15:00:21.173137,-107
2021-10-14 15:00:21.173145,-112
2021-10-14 15:00:21.173154,-103
2021-10-14 15:00:21.173162,-93
2021-10-14 15:00:21.173170,-76
2021-10-14 15:00:21.173179,34
2021-10-14 15:00:21.173187,341
2021-10-14 15:00:21.173196,726
2021-10-14 15:00:21.173204,745
2021-10-14 15:00:21.173213,78
2021-10-14 15:00:21.398337,-576
2021-10-14 15:00:21.398359,-331
2021-10-14 15:00:21.398369,93
2021-10-14 15:00:21.398378,-17
2021-10-14 15:00:21.398386,-103
2021-10-14 15:00:21.398395,14
2021-10-14 15:00:21.398404,14
2021-10-14 15:00:21.398412,-14
2021-10-14 15:00:21.398421,36
2021-10-14 15:00:21.398430,58
2021-10-14 15:00:21.398439,49
2021-10-14 15:00:21.398447,73
2021-10-14 15:00:21.398456,107
2021-10-14 15:00:21.398464,127
2021-10-14 15:00:21.398473,147
2021-10-14 15:00:21.398481,169
2021-10-14 15:00:21.398490,201
2021-10-14 15:00:21.398498,250
2021-10-14 15:00:21.398506,291
2021-10-14 15:00:21.398515,326
2021-10-14 15:00:21.398524,372
2021-10-14 15:00:21.398532,402
2021-10-14 15:00:21.398541,409
2021-10-14 15:00:21.398549,424
2021-10-14 15:00:21.398557,426
2021-10-14 15:00:21.398566,409
2021-10-14 15:00:21.398575,375
2021-10-14 15:00:21.398583,299
2021-10-14 15:00:21.398591,196
2021-10-14 15:00:21.398600,95
2021-10-14 15:00:21.668259,4
2021-10-14 15:00:21.668283,-80
2021-10-14 15:00:21.668293,-157
2021-10-14 15:00:21.668301,-206
2021-10-14 15:00:21.668310,-225
2021-10-14 15:00:21.668319,-235
2021-10-14 15:00:21.668327,-242
2021-10-14 15:00:21.668336,-228
2021-10-14 15:00:21.668344,-228
2021-10-14 15:00:21.668353,-245
2021-10-14 15:00:21.668361,-225
2021-10-14 15:00:21.668370,-203
2021-10-14 15:00:21.668378,-208
2021-10-14 15:00:21.668387,-206
2021-10-14 15:00:21.668395,-201
2021-10-14 15:00:21.668403,-203
2021-10-14 15:00:21.668412,-186
2021-10-14 15:00:21.668420,-188
2021-10-14 15:00:21.668429,-196
2021-10-14 15:00:21.668437,-159
2021-10-14 15:00:21.668445,-144
2021-10-14 15:00:21.668454,-166
2021-10-14 15:00:21.668462,-154
2021-10-14 15:00:21.668471,-147
2021-10-14 15:00:21.668479,-149
2021-10-14 15:00:21.668488,-130
2021-10-14 15:00:21.668496,-144
2021-10-14 15:00:21.668504,-179
2021-10-14 15:00:21.668513,-147
2021-10-14 15:00:21.668521,-110
2021-10-14 15:00:21.892948,-137
2021-10-14 15:00:21.892970,-149
2021-10-14 15:00:21.892979,-110
2021-10-14 15:00:21.892988,-71
2021-10-14 15:00:21.892997,-51
2021-10-14 15:00:21.893005,-44
2021-10-14 15:00:21.893014,-49
2021-10-14 15:00:21.893022,-56
2021-10-14 15:00:21.893030,-80
2021-10-14 15:00:21.893039,-105
2021-10-14 15:00:21.893047,-88
2021-10-14 15:00:21.893055,-61
2021-10-14 15:00:21.893064,-63
2021-10-14 15:00:21.893072,-76
2021-10-14 15:00:21.893080,-73
2021-10-14 15:00:21.893089,-80
2021-10-14 15:00:21.893097,-80
2021-10-14 15:00:21.893106,-24
2021-10-14 15:00:21.893114,120
2021-10-14 15:00:21.893122,426
2021-10-14 15:00:21.893131,733
2021-10-14 15:00:21.893139,574
2021-10-14 15:00:21.893148,-125
2021-10-14 15:00:21.893156,-473
2021-10-14 15:00:21.893165,-95
2021-10-14 15:00:21.893173,112
2021-10-14 15:00:21.893182,-46
2021-10-14 15:00:21.893190,-26
2021-10-14 15:00:21.893198,51
2021-10-14 15:00:21.893207,7
2021-10-14 15:00:22.118349,19
2021-10-14 15:00:22.118370,85
2021-10-14 15:00:22.118380,93
2021-10-14 15:00:22.118389,83
2021-10-14 15:00:22.118397,117
2021-10-14 15:00:22.118406,137
2021-10-14 15:00:22.118414,142
2021-10-14 15:00:22.118423,164
2021-10-14 15:00:22.118431,198
2021-10-14 15:00:22.118440,228
2021-10-14 15:00:22.118448,260
2021-10-14 15:00:22.118457,301
2021-10-14 15:00:22.118465,338
2021-10-14 15:00:22.118473,363
2021-10-14 15:00:22.118482,385
2021-10-14 15:00:22.118490,399
2021-10-14 15:00:22.118499,392
2021-10-14 15:00:22.118507,380
2021-10-14 15:00:22.118515,370
2021-10-14 15:00:22.118524,328
2021-10-14 15:00:22.118532,245
2021-10-14 15:00:22.118541,159
2021-10-14 15:00:22.118549,53
2021-10-14 15:00:22.118557,-61
2021-10-14 15:00:22.118566,-112
2021-10-14 15:00:22.118574,-137
2021-10-14 15:00:22.118583,-186
2021-10-14 15:00:22.118591,-211
2021-10-14 15:00:22.118600,-198
2021-10-14 15:00:22.118608,-198
2021-10-14 15:00:22.298294,-213
2021-10-14 15:00:22.298315,-206
2021-10-14 15:00:22.298324,-166
2021-10-14 15:00:22.298333,-154
2021-10-14 15:00:22.298342,-166
2021-10-14 15:00:22.298351,-149
2021-10-14 15:00:22.298359,-142
2021-10-14 15:00:22.298368,-147
2021-10-14 15:00:22.298377,-122
2021-10-14 15:00:22.298385,-103
2021-10-14 15:00:22.298394,-112
2021-10-14 15:00:22.298402,-139
2021-10-14 15:00:22.298411,-154
2021-10-14 15:00:22.298419,-149
2021-10-14 15:00:22.298428,-152
2021-10-14 15:00:22.298436,-157
2021-10-14 15:00:22.298445,-147
2021-10-14 15:00:22.298453,-152
2021-10-14 15:00:22.298461,-166
2021-10-14 15:00:22.298470,-157
2021-10-14 15:00:22.298478,-134
2021-10-14 15:00:22.298487,-147
2021-10-14 15:00:22.298496,-164
2021-10-14 15:00:22.298504,-164
2021-10-14 15:00:22.298512,-159
2021-10-14 15:00:22.298521,-139
2021-10-14 15:00:22.298530,-93
2021-10-14 15:00:22.298538,-66
2021-10-14 15:00:22.298546,-71
2021-10-14 15:00:22.298555,-76
2021-10-14 15:00:22.566490,-76
2021-10-14 15:00:22.566508,-76
2021-10-14 15:00:22.566518,-90
2021-10-14 15:00:22.566527,-105
2021-10-14 15:00:22.566535,-90
2021-10-14 15:00:22.566544,-76
2021-10-14 15:00:22.566552,-93
2021-10-14 15:00:22.566561,-93
2021-10-14 15:00:22.566569,-61
2021-10-14 15:00:22.566578,-51
2021-10-14 15:00:22.566586,-31
2021-10-14 15:00:22.566595,98
2021-10-14 15:00:22.566604,407
2021-10-14 15:00:22.566612,728
2021-10-14 15:00:22.566621,588
2021-10-14 15:00:22.566629,-110
2021-10-14 15:00:22.566638,-480
2021-10-14 15:00:22.566646,-107
2021-10-14 15:00:22.566655,98
2021-10-14 15:00:22.566663,-78
2021-10-14 15:00:22.566671,-61
2021-10-14 15:00:22.566680,36
2021-10-14 15:00:22.566688,-12
2021-10-14 15:00:22.566697,-26
2021-10-14 15:00:22.566705,36
2021-10-14 15:00:22.566714,58
2021-10-14 15:00:22.566722,58
2021-10-14 15:00:22.566730,80
2021-10-14 15:00:22.566739,105
2021-10-14 15:00:22.566747,125
2021-10-14 15:00:22.792666,164
2021-10-14 15:00:22.792687,211
2021-10-14 15:00:22.792696,235
2021-10-14 15:00:22.792705,260
2021-10-14 15:00:22.792714,306
2021-10-14 15:00:22.792722,348
2021-10-14 15:00:22.792731,377
2021-10-14 15:00:22.792739,412
2021-10-14 15:00:22.792794,436
2021-10-14 15:00:22.792804,436
2021-10-14 15:00:22.792812,426
2021-10-14 15:00:22.792821,412
2021-10-14 15:00:22.792829,368
2021-10-14 15:00:22.792838,301
2021-10-14 15:00:22.792846,218
2021-10-14 15:00:22.792855,103
2021-10-14 15:00:22.792863,0
2021-10-14 15:00:22.792872,-58
2021-10-14 15:00:22.792880,-103
2021-10-14 15:00:22.792889,-130
2021-10-14 15:00:22.792897,-130
2021-10-14 15:00:22.792905,-132
2021-10-14 15:00:22.792914,-139
2021-10-14 15:00:22.792922,-127
2021-10-14 15:00:22.792930,-110
2021-10-14 15:00:22.792939,-103
2021-10-14 15:00:22.792947,-95
2021-10-14 15:00:22.792956,-88
2021-10-14 15:00:22.792964,-66
2021-10-14 15:00:22.792973,-49
2021-10-14 15:00:22.972949,-44
2021-10-14 15:00:22.972970,-36
2021-10-14 15:00:22.972979,-29
2021-10-14 15:00:22.972988,-31
2021-10-14 15:00:22.972997,-41
2021-10-14 15:00:22.973006,-46
2021-10-14 15:00:22.973014,-39
2021-10-14 15:00:22.973023,-34
2021-10-14 15:00:22.973031,-31
2021-10-14 15:00:22.973040,-36
2021-10-14 15:00:22.973048,-51
2021-10-14 15:00:22.973056,-63
2021-10-14 15:00:22.973065,-63
2021-10-14 15:00:22.973073,-56
2021-10-14 15:00:22.973082,-53
2021-10-14 15:00:22.973090,-61
2021-10-14 15:00:22.973099,-61
2021-10-14 15:00:22.973107,-53
2021-10-14 15:00:22.973115,-56
2021-10-14 15:00:22.973124,-63
2021-10-14 15:00:22.973132,-53
2021-10-14 15:00:22.973140,-46
2021-10-14 15:00:22.973149,-51
2021-10-14 15:00:22.973157,-41
2021-10-14 15:00:22.973166,-7
2021-10-14 15:00:22.973174,26
2021-10-14 15:00:22.973183,24
2021-10-14 15:00:22.973191,2
2021-10-14 15:00:22.973199,-4
2021-10-14 15:00:22.973208,-9
2021-10-14 15:00:23.197934,-26
2021-10-14 15:00:23.197954,-34
2021-10-14 15:00:23.197964,-22
2021-10-14 15:00:23.197973,-17
2021-10-14 15:00:23.197981,-26
2021-10-14 15:00:23.197990,-34
2021-10-14 15:00:23.197999,-26
2021-10-14 15:00:23.198007,-26
2021-10-14 15:00:23.198016,-2
2021-10-14 15:00:23.198024,130
2021-10-14 15:00:23.198033,429
2021-10-14 15:00:23.198041,770
2021-10-14 15:00:23.198049,731
2021-10-14 15:00:23.198058,66
2021-10-14 15:00:23.198066,-446
2021-10-14 15:00:23.198075,-144
2021-10-14 15:00:23.198083,144
2021-10-14 15:00:23.198092,-2
2021-10-14 15:00:23.198100,-24
2021-10-14 15:00:23.198109,76
2021-10-14 15:00:23.198119,39
2021-10-14 15:00:23.198127,9
2021-10-14 15:00:23.198136,63
2021-10-14 15:00:23.198144,90
2021-10-14 15:00:23.198152,88
2021-10-14 15:00:23.198160,115
2021-10-14 15:00:23.198169,137
2021-10-14 15:00:23.198177,142
2021-10-14 15:00:23.198186,164
2021-10-14 15:00:23.198194,203
2021-10-14 15:00:23.468380,233
2021-10-14 15:00:23.468402,269
2021-10-14 15:00:23.468412,321
2021-10-14 15:00:23.468421,353
2021-10-14 15:00:23.468430,372
2021-10-14 15:00:23.468438,407
